Time,Rectus Femoris,Vastus Medialis,Vastus Lateralis,Bicep Femoris,Tibialis,Gastrocnemius Medialis,Activity
1.7763568394002505e-15,2.104247526950929e-05,2.261821938289136e-05,2.2151902071672607e-05,1.4099348590741032e-05,0.0001492009940565,1.0528109047299523e-06,Unknown
0.0005192300000000927,2.1103715612966905e-05,2.2318814656090832e-05,2.246503418985672e-05,1.409187661193612e-05,0.000149085744181,1.0482520100475992e-06,Unknown
0.0010384600000001853,2.112284955038293e-05,2.2060986764797435e-05,2.3053190118659494e-05,1.4094627343667368e-05,0.0001489726583115,1.0459041040073894e-06,Unknown
0.001557690000000278,2.1129874325731817e-05,2.185740520953995e-05,2.3713607734401145e-05,1.4137046399598716e-05,0.0001486924414449,1.0448970823023587e-06,Unknown
0.0020769200000003707,2.113448734260109e-05,2.1670508156531445e-05,2.422520992390593e-05,1.424241432560219e-05,0.0001479817455022,1.044457504439402e-06,Unknown
0.0025961500000004634,2.1138757291723243e-05,2.1463971253572303e-05,2.457153482511544e-05,1.4416285859783982e-05,0.0001466720164227,1.0440190935553826e-06,Unknown
0.003115380000000556,2.114038001101084e-05,2.123780813935496e-05,2.485542852704269e-05,1.4647536244394266e-05,0.0001447905216329,1.0429307294585048e-06,Unknown
0.003634620000001476,2.113729153942613e-05,2.1011876299831874e-05,2.517103508039572e-05,1.49210773426821e-05,0.0001426234183565,1.0406701098218792e-06,Unknown
0.004153850000001569,2.1131427133772445e-05,2.0802650083906115e-05,2.5557038803708123e-05,1.5213407367507938e-05,0.000140913282293,1.0372471127087923e-06,Unknown
0.0046730800000016615,2.1123918301643224e-05,2.0623179574642224e-05,2.599383323129834e-05,1.5493260098565836e-05,0.0001404112144419,1.0330322908850668e-06,Unknown
0.005192310000001754,2.11179601421642e-05,2.0500530367436625e-05,2.644087365410468e-05,1.5757730698482903e-05,0.0001403132944363,1.0282993733974024e-06,Unknown
0.0057115400000000704,2.1122497103261517e-05,2.048882393251762e-05,2.685545820184528e-05,1.6039396344232357e-05,0.0001383279337585,1.02304615709749e-06,Unknown
0.006230770000000163,2.113761550248677e-05,2.06472922948202e-05,2.717645249348678e-05,1.6360463054646286e-05,0.000134119033703,1.0170816706631116e-06,Unknown
0.006750000000000256,2.1154590379213728e-05,2.0975784700801524e-05,2.7353344738796043e-05,1.6699453404095526e-05,0.0001303335765587,1.0102350173137458e-06,Unknown
0.0072692300000003485,2.11706007038812e-05,2.1388521789850096e-05,2.7417584985912072e-05,1.7008885303392356e-05,0.0001284846663867,1.0026228683833818e-06,Unknown
0.007788460000000441,2.118848569474494e-05,2.1777973232954264e-05,2.7454258104251112e-05,1.726263758154921e-05,0.000127652071569,9.948628457160033e-07,Unknown
0.008307690000000534,2.12084027648604e-05,2.208247449323e-05,2.7578992320613662e-05,1.7473895739221156e-05,0.0001268173426071,9.87861698888463e-07,Unknown
0.008826920000000626,2.122518685756847e-05,2.2289751306083813e-05,2.8114261023484788e-05,1.7662289812655666e-05,0.0001255982749239,9.822280089453392e-07,Unknown
0.00934615000000072,2.1234390842329648e-05,2.241026295427948e-05,2.954114240045742e-05,1.783257615195678e-05,0.0001244230319999,9.780708317325871e-07,Unknown
0.009865380000000812,2.123640636679123e-05,2.2462405571940347e-05,3.201938278405752e-05,1.798436291871198e-05,0.0001237607623409,9.75229081488534e-07,Unknown
0.010384620000001732,2.12342439143806e-05,2.24682199601374e-05,3.5181610260413635e-05,1.811493987145388e-05,0.0001234242928076,9.734400317536009e-07,Unknown
0.010903850000001825,2.1231736296685006e-05,2.2450286893811564e-05,3.837075976221775e-05,1.8223482092743653e-05,0.000123107337899,9.724116447659686e-07,Unknown
0.011423080000000141,2.123132114576354e-05,2.2430534189239217e-05,4.086624356617079e-05,1.8312081042940608e-05,0.0001227320232037,9.718848332212218e-07,Unknown
0.011942310000000234,2.123091628536857e-05,2.2431094731891096e-05,4.215453693177204e-05,1.8375670146394167e-05,0.0001225127689364,9.716941653723365e-07,Unknown
0.012461540000000326,2.122817912581412e-05,2.2474113179865567e-05,4.237034665360436e-05,1.8408530984256263e-05,0.0001225069761243,9.717589953874595e-07,Unknown
0.012980770000000419,2.1225646794397708e-05,2.256792299637676e-05,4.24846026331293e-05,1.8415711375412857e-05,0.0001223688411153,9.71921285611367e-07,Unknown
0.013500000000000512,2.1240595774375272e-05,2.267902195197588e-05,4.374145374464678e-05,1.840804408994937e-05,0.0001219295757518,9.719780968625946e-07,Unknown
0.014019230000000604,2.1316778349874005e-05,2.2733802131488283e-05,4.667761792906438e-05,1.8393794210026665e-05,0.0001213506693258,9.719797256838322e-07,Unknown
0.014538460000000697,2.147331721833284e-05,2.2677598131217356e-05,5.078989502443264e-05,1.837834225899288e-05,0.0001207362595198,9.72065105428519e-07,Unknown
0.01505769000000079,2.165032175535218e-05,2.2521657142621213e-05,5.5099061170658507e-05,1.836630635893322e-05,0.0001200461323801,9.7213075101997e-07,Unknown
0.015576920000000882,2.1769789201715244e-05,2.2316502479727943e-05,5.883864385677422e-05,1.8359599532590035e-05,0.0001193074217103,9.720586106168775e-07,Unknown
0.016096150000000975,2.1811686729123316e-05,2.2101250437078848e-05,6.176248602016293e-05,1.8357388755269e-05,0.0001187517759999,9.719306328008577e-07,Unknown
0.016615380000001068,2.180622063039232e-05,2.1888051669239225e-05,6.402331554603496e-05,1.8358252659937263e-05,0.0001185530745267,9.719537861470725e-07,Unknown
0.01713462000000021,2.1788719802848428e-05,2.1675527852129887e-05,6.584068301327228e-05,1.835995767405184e-05,0.0001185479428507,9.723772164903448e-07,Unknown
0.017653850000000304,2.1770757335802916e-05,2.146313322394728e-05,6.72675629491109e-05,1.835899656971378e-05,0.0001185045363184,9.733439586835734e-07,Unknown
0.018173080000000397,2.175337309041774e-05,2.125293542792703e-05,6.822271779218285e-05,1.835184761246824e-05,0.0001183871796385,9.746043504507808e-07,Unknown
0.01869231000000049,2.174842250852049e-05,2.104413561393912e-05,6.870612300163746e-05,1.8338233612590725e-05,0.0001182447585512,9.753273918170145e-07,Unknown
0.019211540000000582,2.176364999690202e-05,2.0833108490320326e-05,6.887584457266763e-05,1.832384142696997e-05,0.0001181159783608,9.746340702769324e-07,Unknown
0.019730770000000675,2.179325720217296e-05,2.062076176488312e-05,6.890964274529838e-05,1.8314509926142772e-05,0.0001180484715249,9.724310357070377e-07,Unknown
0.020250000000000767,2.1829171245061822e-05,2.041555455407381e-05,6.890951477358799e-05,1.8301919197742217e-05,0.0001180466856675,9.691233862440343e-07,Unknown
0.02076923000000086,2.1862827846443847e-05,2.0223608871298723e-05,6.892085956098322e-05,1.827214101894425e-05,0.0001179853259282,9.645616389933778e-07,Unknown
0.021288460000000953,2.188455109572705e-05,2.0042640587247224e-05,6.89558062988877e-05,1.825504396394769e-05,0.0001177160770309,9.579048788267646e-07,Unknown
0.021807690000001045,2.1891079158176027e-05,1.9876470377941005e-05,6.900021553910722e-05,1.832220421315312e-05,0.0001171908719718,9.484120937818768e-07,Unknown
0.022326920000001138,2.189168530115214e-05,1.974736163482366e-05,6.90446476921745e-05,1.847038468256156e-05,0.0001163546501473,9.361208159657902e-07,Unknown
0.02284615000000123,2.190388325060767e-05,1.9689321873664343e-05,6.91134905107274e-05,1.858668714364766e-05,0.0001150867945842,9.21627088589432e-07,Unknown
0.023365380000001323,2.1934659233894613e-05,1.973569344416797e-05,6.92931535362343e-05,1.860886127025783e-05,0.0001135152997815,9.05026136274178e-07,Unknown
0.023884620000000467,2.1964053960005597e-05,1.9902672587946465e-05,6.976424482196778e-05,1.861997097362413e-05,0.0001123242563229,8.855898249346691e-07,Unknown
0.02440385000000056,2.1966527747470537e-05,2.0167954748102533e-05,7.072976545838405e-05,1.874488255175672e-05,0.0001119964161538,8.632347359433981e-07,Unknown
0.024923080000000652,2.1948310134434197e-05,2.0474369559078388e-05,7.22222477769782e-05,1.90464649649346e-05,0.0001119925469075,8.399770883709056e-07,Unknown
0.025442310000000745,2.193953300936799e-05,2.077048207312759e-05,7.396586238410574e-05,1.9530952368527933e-05,0.0001118082532218,8.190495947985842e-07,Unknown
0.025961540000000838,2.1959213451141515e-05,2.1040295925750466e-05,7.547668002480832e-05,2.016811746891368e-05,0.0001117034223198,8.028459145411841e-07,Unknown
0.02648077000000093,2.2011421568966615e-05,2.129426451142349e-05,7.637839939444085e-05,2.087402870690236e-05,0.0001116826526154,7.919155893289625e-07,Unknown
0.027000000000001023,2.210157536701825e-05,2.155054804531408e-05,7.666507869534458e-05,2.1526602914144127e-05,0.0001111839208826,7.851290633854222e-07,Unknown
0.027519230000001116,2.2232164262486883e-05,2.18288812193624e-05,7.666792806540864e-05,2.204043219899889e-05,0.000109890619066,7.806250283574005e-07,Unknown
0.02803846000000121,2.2372005556025456e-05,2.214481584490424e-05,7.678416315336018e-05,2.241197097173919e-05,0.0001082178711597,7.770950059200341e-07,Unknown
0.0285576900000013,2.2461222961932568e-05,2.2482603094505013e-05,7.722807010756903e-05,2.2689173218406337e-05,0.0001070265098229,7.742958815734737e-07,Unknown
0.029076920000001394,2.2478870054591027e-05,2.276925758033503e-05,7.796593767915348e-05,2.291569717122517e-05,0.0001066867014589,7.724911066237229e-07,Unknown
0.029596150000001487,2.2460436986491976e-05,2.292629452725548e-05,7.880048762456908e-05,2.3102098734392004e-05,0.0001066865991096,7.716820997013514e-07,Unknown
0.03011538000000158,2.24396131274063e-05,2.296559577952493e-05,7.951336997892623e-05,2.3237962243270982e-05,0.0001065759573563,7.714154717185647e-07,Unknown
0.030634620000000723,2.242332402610617e-05,2.296325218405319e-05,7.999319562095058e-05,2.3319400827728652e-05,0.0001064574878627,7.712180589544642e-07,Unknown
0.031153850000000816,2.240881853463353e-05,2.29566783406927e-05,8.026582818129296e-05,2.3357807288075707e-05,0.0001064183885914,7.713475738304095e-07,Unknown
0.03167308000000091,2.239342754584196e-05,2.2949074429167436e-05,8.041363910652473e-05,2.3369410289918898e-05,0.000106385571579,7.733730999741918e-07,Unknown
0.032192310000001,2.2377208062510024e-05,2.295363472194228e-05,8.049317978742907e-05,2.336471034756407e-05,0.0001061876333834,7.789977918879207e-07,Unknown
0.032711540000001094,2.236376692722831e-05,2.2974681516495263e-05,8.052464114284067e-05,2.334685280507465e-05,0.0001053999709711,7.873969783834517e-07,Unknown
0.033230770000001186,2.235597895609763e-05,2.2995060376130808e-05,8.05263935546343e-05,2.3317498062654058e-05,0.0001038184181839,7.959292229243958e-07,Unknown
0.03375000000000128,2.2352416500672996e-05,2.2996581748293355e-05,8.052951513023139e-05,2.3287064276050983e-05,0.0001019849182784,8.039668390507441e-07,Unknown
0.03426923000000137,2.2350021254467195e-05,2.297278323438914e-05,8.05492469858903e-05,2.328068396095411e-05,0.0001006097675596,8.142568908048378e-07,Unknown
0.034788460000001464,2.234696901239121e-05,2.292848775518955e-05,8.057805171806465e-05,2.332015718762422e-05,9.98005227393875e-05,8.32716940360086e-07,Unknown
0.03530769000000156,2.234250218936673e-05,2.2875038027385755e-05,8.060800653442186e-05,2.339061828972511e-05,9.924323770168352e-05,8.673080709230228e-07,Unknown
0.03582692000000165,2.2337866744840667e-05,2.282211980735845e-05,8.063630825190443e-05,2.3449197775726144e-05,9.865550913246446e-05,9.238034015427892e-07,Unknown
0.03634615000000174,2.2336637702515998e-05,2.277284173380917e-05,8.065867593800788e-05,2.3473185016045297e-05,9.79702697106328e-05,1.0032354535336769e-06,Unknown
0.03686538000000006,2.233971578225429e-05,2.272675072528741e-05,8.067111269862245e-05,2.347116777063389e-05,9.73910113869586e-05,1.104152313454348e-06,Unknown
0.03738462000000098,2.2340812391297564e-05,2.2685353532157325e-05,8.067571443862971e-05,2.345683019217235e-05,9.711490095290671e-05,1.222770893310975e-06,Unknown
0.03790385000000107,2.2334362368662444e-05,2.2652705087940063e-05,8.067742879710142e-05,2.34389919981258e-05,9.706446039416792e-05,1.346441184681286e-06,Unknown
0.038423080000001164,2.2323942506079797e-05,2.2627930086865915e-05,8.067944712765191e-05,2.342616876070953e-05,9.706684049170448e-05,1.4492783681537648e-06,Unknown
0.03894231000000126,2.231633027618444e-05,2.2599647392174725e-05,8.068327108601499e-05,2.3423977696950715e-05,9.70601378030786e-05,1.5047940378327192e-06,Unknown
0.03946154000000135,2.2328095080784118e-05,2.2556740432962368e-05,8.068863973261788e-05,2.34304233557459e-05,9.705822907823962e-05,1.512495718940887e-06,Unknown
0.03998077000000144,2.240845848013983e-05,2.250262305438114e-05,8.06938328788387e-05,2.3439773874302663e-05,9.705267254267944e-05,1.5083120253305566e-06,Unknown
0.040500000000001535,2.260843815330901e-05,2.245605800754948e-05,8.069763352530564e-05,2.344866327399949e-05,9.69692578344995e-05,1.5340491565530882e-06,Unknown
0.04101923000000163,2.286141386382534e-05,2.245060174428503e-05,8.070128331983644e-05,2.3455360789258456e-05,9.67345346186707e-05,1.5961292110665351e-06,Unknown
0.04153846000000172,2.2991387079172365e-05,2.2515071960029685e-05,8.071194765556836e-05,2.345830806088124e-05,9.64104929464665e-05,1.669429617614075e-06,Unknown
0.04205769000000181,2.293247679084254e-05,2.263283440437809e-05,8.075946135836926e-05,2.3458068246917508e-05,9.617375893701518e-05,1.730266583210075e-06,Unknown
0.04257692000000013,2.281063734634497e-05,2.275589752986812e-05,8.091061248317125e-05,2.3456752504102613e-05,9.610957183275322e-05,1.7714168664264263e-06,Unknown
0.04309615000000022,2.2799658301829816e-05,2.2864843829600263e-05,8.121367283781336e-05,2.345574705195465e-05,9.610567551437256e-05,1.7969687150871157e-06,Unknown
0.043615380000000314,2.2989242115012903e-05,2.298505914353467e-05,8.161453330686711e-05,2.345553283776525e-05,9.594554472160643e-05,1.813173517345832e-06,Unknown
0.044134620000001235,2.3338143977703687e-05,2.3163157383009367e-05,8.199782369453671e-05,2.3456620962589688e-05,9.54238120080574e-05,1.823640017343844e-06,Unknown
0.04465385000000133,2.369975774098452e-05,2.3436742817775765e-05,8.229808756807035e-05,2.346109200452494e-05,9.43844374189291e-05,1.829797677960801e-06,Unknown
0.04517308000000142,2.3943493783652477e-05,2.379117654241633e-05,8.251434001641917e-05,2.347241012383102e-05,9.274669813011346e-05,1.833460281070266e-06,Unknown
0.04569231000000151,2.4060674221716184e-05,2.41472454058304e-05,8.265622887226954e-05,2.3491801425111224e-05,9.060696437543836e-05,1.8381140173316517e-06,Unknown
0.046211540000001605,2.412236805411183e-05,2.4419620055407827e-05,8.272253877017909e-05,2.351641820661735e-05,8.835135527683579e-05,1.8503082514025008e-06,Unknown
0.0467307700000017,2.4178701139086664e-05,2.4577012025041768e-05,8.273031842176601e-05,2.3542140877781628e-05,8.654746666113992e-05,1.8803838994529733e-06,Unknown
0.04725000000000179,2.421824939616932e-05,2.4640008945761484e-05,8.274506644818647e-05,2.356762836442209e-05,8.558460962838972e-05,1.933788620441862e-06,Unknown
0.04776923000000011,2.421007576768061e-05,2.464989526197633e-05,8.285899487734054e-05,2.3593775992636484e-05,8.53733012143945e-05,2.0015843910858987e-06,Unknown
0.0482884600000002,2.418190963663188e-05,2.4652742455807352e-05,8.312682113738253e-05,2.361754583372497e-05,8.537004790547533e-05,2.068214762087489e-06,Unknown
0.04880769000000029,2.4164937074823127e-05,2.4691311597570196e-05,8.351775584018682e-05,2.3634606118063276e-05,8.509193110246766e-05,2.1240117622631994e-06,Unknown
0.049326920000000385,2.4140227065320447e-05,2.478542571380739e-05,8.393260862406401e-05,2.3646066862263068e-05,8.474194841169305e-05,2.165963432304852e-06,Unknown
0.04984615000000048,2.4144653823729368e-05,2.4918374808040437e-05,8.427369034295555e-05,2.365476487768449e-05,8.470626590180918e-05,2.193244981922956e-06,Unknown
0.05036538000000057,2.420666554577378e-05,2.505631280410916e-05,8.449824050315148e-05,2.3661824913143178e-05,8.450436165833257e-05,2.2064910782407856e-06,Unknown
0.05088462000000149,2.425008165506615e-05,2.517771091801196e-05,8.461279301454366e-05,2.366545054572385e-05,8.353366043344262e-05,2.2096444662692507e-06,Unknown
0.05140385000000158,2.423947148593781e-05,2.5275783937064363e-05,8.464466034658333e-05,2.3663639393330027e-05,8.233858548812097e-05,2.209331588015869e-06,Unknown
0.051923080000001676,2.422318899771056e-05,2.5343812388460537e-05,8.464431185456708e-05,2.365944946541457e-05,8.185547075788406e-05,2.2112867331443924e-06,Unknown
0.05244231000000177,2.422876866072848e-05,2.537396265803997e-05,8.470162346422931e-05,2.365655474868312e-05,8.186385893599767e-05,2.21779771985872e-06,Unknown
0.052961540000000085,2.4246223518520605e-05,2.536759837809116e-05,8.489315448859365e-05,2.365496187434462e-05,8.09984771792119e-05,2.2285615966674067e-06,Unknown
0.05348077000000018,2.426411716332713e-05,2.5334849554685716e-05,8.518751951775132e-05,2.3652909341502695e-05,7.83286698269646e-05,2.2432059603087558e-06,Unknown
0.05400000000000027,2.428143164391004e-05,2.529028896975752e-05,8.547791364818435e-05,2.36506417246727e-05,7.462345318221949e-05,2.2622630238057745e-06,Unknown
0.05451923000000036,2.4307563006850257e-05,2.52563743816768e-05,8.570355318228821e-05,2.3652382453783558e-05,7.157271252774789e-05,2.2850296908475226e-06,Unknown
0.055038460000000455,2.4356780059184563e-05,2.5259565484125356e-05,8.58682937035266e-05,2.3660833838890154e-05,6.992602394363705e-05,2.3062890160239577e-06,Unknown
0.05555769000000055,2.4430209080606616e-05,2.530255482487924e-05,8.598133432564619e-05,2.367257496205617e-05,6.928436732423216e-05,2.3184865913643102e-06,Unknown
0.05607692000000064,2.4501545478383723e-05,2.534845913366132e-05,8.603532832156077e-05,2.3680536362370747e-05,6.911576114007903e-05,2.3203515533753967e-06,Unknown
0.05659615000000073,2.453766942452957e-05,2.5361837149453352e-05,8.604143855693796e-05,2.3679192413429423e-05,6.911032928189093e-05,2.318914497269417e-06,Unknown
0.057115380000000826,2.4529620966030693e-05,2.534542402627184e-05,8.604915621007404e-05,2.366887362288865e-05,6.908170578591273e-05,2.3197076176588138e-06,Unknown
0.057634620000001746,2.448821146785361e-05,2.5318444929061005e-05,8.609911136325299e-05,2.3654557615449777e-05,6.903437606535037e-05,2.3210304960518875e-06,Unknown
0.05815385000000006,2.442303087184583e-05,2.5293057527367666e-05,8.618399800316726e-05,2.364077170518398e-05,6.904196136419899e-05,2.320577718633532e-06,Unknown
0.058673080000000155,2.433936382080656e-05,2.527507836837816e-05,8.627421536947256e-05,2.3629531282995798e-05,6.889425146814986e-05,2.3215583588467715e-06,Unknown
0.05919231000000025,2.424730890123638e-05,2.526381966271134e-05,8.635408122987347e-05,2.3621616354446224e-05,6.833208173348522e-05,2.329913908265637e-06,Unknown
0.05971154000000034,2.416329908491603e-05,2.5254723141215185e-05,8.64248105056907e-05,2.3617878207293383e-05,6.754436173287983e-05,2.3491194797269496e-06,Unknown
0.06023077000000043,2.4105555809320112e-05,2.5246148150137783e-05,8.649250643986683e-05,2.3618886113206997e-05,6.703434685075386e-05,2.378767874155548e-06,Unknown
0.060750000000000526,2.4090099980807465e-05,2.5241406404677487e-05,8.65632399504616e-05,2.362377906773645e-05,6.696591572568572e-05,2.4156874222269383e-06,Unknown
0.06126923000000062,2.4112407108611608e-05,2.524534066857441e-05,8.664558085213193e-05,2.363039442574908e-05,6.686785748722327e-05,2.4549079967581963e-06,Unknown
0.06178846000000071,2.413876596620892e-05,2.5257938365258725e-05,8.674701442399175e-05,2.363608060772461e-05,6.62417229025761e-05,2.4904640225234256e-06,Unknown
0.062307690000000804,2.414623496404773e-05,2.5274454326329337e-05,8.685497308287963e-05,2.363952265750884e-05,6.522243947895782e-05,2.517095521532422e-06,Unknown
0.0628269200000009,2.4144116108774384e-05,2.529256412779263e-05,8.693116727160543e-05,2.3641776641707725e-05,6.434537728766177e-05,2.532636150051538e-06,Unknown
0.06334615000000099,2.4142793178544624e-05,2.531518272314016e-05,8.69551253261266e-05,2.3643515020691435e-05,6.39104493854178e-05,2.5390250964714045e-06,Unknown
0.06386538000000108,2.4143309048134945e-05,2.534635748888468e-05,8.695133764983019e-05,2.3645122634590557e-05,6.380266821142301e-05,2.54027571942094e-06,Unknown
0.06438462000000023,2.4145091701147096e-05,2.538254139877796e-05,8.694525761963418e-05,2.364825567193653e-05,6.379292396459673e-05,2.539518075949332e-06,Unknown
0.06490385000000032,2.4146182594865743e-05,2.5409429522919738e-05,8.693944242746117e-05,2.3651633510418208e-05,6.378387041392955e-05,2.538258366471094e-06,Unknown
0.06542308000000041,2.4145262263819423e-05,2.541626844734601e-05,8.693389159593958e-05,2.365262079197955e-05,6.371796231896807e-05,2.537327424032568e-06,Unknown
0.0659423100000005,2.413782142761392e-05,2.5407973362966704e-05,8.692997408382065e-05,2.36522213523292e-05,6.352494409738733e-05,2.5381030651457463e-06,Unknown
0.0664615400000006,2.411738600903162e-05,2.539765885020736e-05,8.692685626327493e-05,2.365092459784973e-05,6.322713795174375e-05,2.542941746767118e-06,Unknown
0.06698077000000069,2.408420621551456e-05,2.539467067423934e-05,8.692384999793222e-05,2.3648528498924285e-05,6.286308480859046e-05,2.5536304534183973e-06,Unknown
0.06750000000000078,2.404623700888353e-05,2.539750125746368e-05,8.692068383703103e-05,2.364706438571265e-05,6.240225561387276e-05,2.5697808350251785e-06,Unknown
0.06801923000000087,2.401294005044209e-05,2.5398591767947683e-05,8.691757410747663e-05,2.3646902095744143e-05,6.186179209856004e-05,2.589108506330947e-06,Unknown
0.06853846000000097,2.3988899210143345e-05,2.5395968439584985e-05,8.691561748601918e-05,2.364692478306325e-05,6.143543070428093e-05,2.6082117698724534e-06,Unknown
0.06905769000000106,2.397175551880048e-05,2.5391439282429532e-05,8.691525846516663e-05,2.364700044404473e-05,6.128717449778151e-05,2.6231291265775337e-06,Unknown
0.06957692000000115,2.3956161536385345e-05,2.538467181272931e-05,8.69151963125128e-05,2.3647090274372e-05,6.128573419821775e-05,2.6309868849034934e-06,Unknown
0.07009615000000124,2.394034117263501e-05,2.537427314376908e-05,8.691545322283989e-05,2.3647435601999145e-05,6.123956865987261e-05,2.632381652951576e-06,Unknown
0.07061538000000134,2.3930396041741366e-05,2.535918702971134e-05,8.691723184203791e-05,2.364843916262612e-05,6.115836794966642e-05,2.631419842496858e-06,Unknown
0.07113462000000048,2.393502531511116e-05,2.5341885017988897e-05,8.691808812116633e-05,2.3650614346144712e-05,6.112255167713612e-05,2.632602103272884e-06,Unknown
0.07165385000000057,2.395313722102973e-05,2.532907741879219e-05,8.691490655295285e-05,2.3654312934762085e-05,6.112243072737978e-05,2.6378601921949427e-06,Unknown
0.07217308000000067,2.39752627148222e-05,2.5323388989629734e-05,8.690740464815633e-05,2.365914678999412e-05,6.110448691252891e-05,2.646201713927014e-06,Unknown
0.07269231000000076,2.3995684469517496e-05,2.5322505106941878e-05,8.689586719718369e-05,2.3664645333558136e-05,6.108607912012926e-05,2.655300122237394e-06,Unknown
0.07321154000000085,2.401411006487854e-05,2.532850495516579e-05,8.688506093859113e-05,2.3668726108441587e-05,6.108287955737562e-05,2.663319755736047e-06,Unknown
0.07373077000000094,2.4028915502059583e-05,2.534496134481221e-05,8.688092017867576e-05,2.3661480617772037e-05,6.0961702991784415e-05,2.669739910615973e-06,Unknown
0.07425000000000104,2.403287559185838e-05,2.536854330580828e-05,8.688132930826583e-05,2.362573596148578e-05,6.070163994957093e-05,2.675014856462696e-06,Unknown
0.07476923000000113,2.402478097115231e-05,2.539597653573358e-05,8.688341975736487e-05,2.3559108989752003e-05,6.058464404487629e-05,2.679823177217867e-06,Unknown
0.07528846000000122,2.402182246224417e-05,2.5429290109157817e-05,8.688685661801603e-05,2.3484883010753615e-05,6.056595881981504e-05,2.68453244542159e-06,Unknown
0.07580769000000132,2.4041173077206412e-05,2.54619135335786e-05,8.688717537296474e-05,2.342726592899427e-05,6.010280134474e-05,2.68900835116987e-06,Unknown
0.07632692000000141,2.407705395746257e-05,2.547436489047053e-05,8.688125703529409e-05,2.339316855330568e-05,5.911089640137172e-05,2.692859890891568e-06,Unknown
0.0768461500000015,2.411301429417343e-05,2.546075384997216e-05,8.687163267064121e-05,2.3378688937922755e-05,5.814640855900058e-05,2.6959350344920195e-06,Unknown
0.0773653800000016,2.414542778590114e-05,2.5443618450787717e-05,8.68607408134405e-05,2.33765458197754e-05,5.75791674674805e-05,2.698442769452759e-06,Unknown
0.07788462000000074,2.418574115269224e-05,2.5447731448465133e-05,8.684906556544333e-05,2.337764265217824e-05,5.736696107654146e-05,2.700684854576149e-06,Unknown
0.07840385000000083,2.4253822902597622e-05,2.547882261846848e-05,8.683672439529407e-05,2.337612949814312e-05,5.735672347040974e-05,2.7028414132244125e-06,Unknown
0.07892308000000092,2.4364092248512474e-05,2.553663370596789e-05,8.6824209641609e-05,2.3372692947960063e-05,5.721047524882938e-05,2.7047791777016144e-06,Unknown
0.07944231000000102,2.450415667336963e-05,2.5632623042954185e-05,8.681359117012636e-05,2.3368567139887757e-05,5.6100062511930624e-05,2.7059541034644896e-06,Unknown
0.07996154000000111,2.464689930568778e-05,2.578749113637746e-05,8.68088611128278e-05,2.33614238123723e-05,5.3262243026352005e-05,2.706088887161716e-06,Unknown
0.0804807700000012,2.478556837306609e-05,2.60095892282218e-05,8.681378242726883e-05,2.334717235966382e-05,4.9427168571801774e-05,2.7064652978976923e-06,Unknown
0.0810000000000013,2.4929326722484884e-05,2.628184128480809e-05,8.682715413437856e-05,2.332589738505281e-05,4.671141212527102e-05,2.709311223754168e-06,Unknown
0.08151923000000139,2.5080059430065544e-05,2.6580531892206792e-05,8.684065432661901e-05,2.3305044812253813e-05,4.59608239501972e-05,2.7147588098905126e-06,Unknown
0.08203846000000148,2.5232087385256144e-05,2.6897124697629376e-05,8.68446357094402e-05,2.3293975750630063e-05,4.595351880888702e-05,2.72043642415404e-06,Unknown
0.08255769000000157,2.536654515257233e-05,2.7234191000294936e-05,8.68340124697817e-05,2.329718853713301e-05,4.5910869060279286e-05,2.724622537002029e-06,Unknown
0.08307692000000166,2.545246428797532e-05,2.7592945625894974e-05,8.680582227639723e-05,2.3310280519185177e-05,4.591115881240684e-05,2.727410980539124e-06,Unknown
0.08359615000000176,2.5479757314771303e-05,2.7977000437679183e-05,8.675556944545908e-05,2.3322948347171552e-05,4.572066247861718e-05,2.729556875452508e-06,Unknown
0.08411538000000007,2.546870549935233e-05,2.8400298220902047e-05,8.668294966448772e-05,2.333070608417217e-05,4.54381553835322e-05,2.731618063707106e-06,Unknown
0.08463462000000099,2.544223095123461e-05,2.886679783694527e-05,8.660252469465876e-05,2.3337920383070068e-05,4.542110617330588e-05,2.7335056540250905e-06,Unknown
0.08515385000000109,2.5411072913860677e-05,2.9333955605444396e-05,8.65378769835102e-05,2.3345754303613512e-05,4.5204425908225744e-05,2.734886197300634e-06,Unknown
0.08567308000000118,2.5364121668876027e-05,2.972601661980909e-05,8.650008476244157e-05,2.334541039864917e-05,4.458575559579285e-05,2.735829333134185e-06,Unknown
0.08619231000000127,2.5270363818790738e-05,3.000466619933074e-05,8.648247508277124e-05,2.3326976183547415e-05,4.4205505617305377e-05,2.7366228949336798e-06,Unknown
0.08671154000000136,2.5117516964328164e-05,3.019653346370272e-05,8.647438318423896e-05,2.329419903797982e-05,4.418658286101676e-05,2.737386988242894e-06,Unknown
0.08723077000000146,2.492399094490262e-05,3.0352043620341626e-05,8.646985273061305e-05,2.3266934153790597e-05,4.409719873291466e-05,2.7380969104064527e-06,Unknown
0.08775000000000155,2.470805549140244e-05,3.051351091254711e-05,8.646698535202908e-05,2.325920326579636e-05,4.385643041181272e-05,2.7387237949106306e-06,Unknown
0.08826923000000164,2.4478925900664765e-05,3.070746540614403e-05,8.646530806898132e-05,2.325944035619722e-05,4.363612825809031e-05,2.7392309948841884e-06,Unknown
0.08878846000000173,2.425728998228877e-05,3.0937656035623726e-05,8.64640725294234e-05,2.3250076399043104e-05,4.349317725798309e-05,2.7395207760030965e-06,Unknown
0.08930769000000005,2.4080847134451214e-05,3.118412922243034e-05,8.646213352665204e-05,2.323529246163165e-05,4.339013926307912e-05,2.73947144388472e-06,Unknown
0.08982692000000014,2.397405373603022e-05,3.1414265712258546e-05,8.645883995101295e-05,2.322870005409775e-05,4.32963947008435e-05,2.739047447720939e-06,Unknown
0.09034615000000024,2.3927157892453425e-05,3.1602280599896285e-05,8.645525014443027e-05,2.3229062218595487e-05,4.322141003313772e-05,2.7384705357911534e-06,Unknown
0.09086538000000033,2.3914792974285483e-05,3.174185726857806e-05,8.645352758784698e-05,2.3223898980248645e-05,4.320181305991839e-05,2.738478072754157e-06,Unknown
0.09138462000000125,2.3921037925808656e-05,3.183769628803354e-05,8.645326088414994e-05,2.3205273555393773e-05,4.317338117341248e-05,2.7398523698543413e-06,Unknown
0.09190385000000134,2.3943249059222516e-05,3.18922447515894e-05,8.645012926500339e-05,2.317519780323636e-05,4.272434145654707e-05,2.7419847530968644e-06,Unknown
0.09242308000000143,2.3981539581015136e-05,3.190788466478118e-05,8.643953841268185e-05,2.314346664666437e-05,4.107851906228594e-05,2.743078033495088e-06,Unknown
0.09294231000000153,2.403567463130381e-05,3.1894190729292985e-05,8.641865960040453e-05,2.3121238443456136e-05,3.7733972278493616e-05,2.742533477720907e-06,Unknown
0.09346154000000162,2.410741163171172e-05,3.186601206803507e-05,8.638685386315687e-05,2.3111293839884664e-05,3.344142493519648e-05,2.741430033570272e-06,Unknown
0.09398077000000171,2.419546041631668e-05,3.183758328641621e-05,8.634976224592574e-05,2.3107761277341707e-05,3.0352093056780557e-05,2.740613150634935e-06,Unknown
0.0945000000000018,2.4290400751799997e-05,3.1817756057554986e-05,8.631828208394263e-05,2.31047796839944e-05,2.9754638287214692e-05,2.7401590635416105e-06,Unknown
0.09501923000000012,2.4382501675224815e-05,3.1807841382949995e-05,8.629836881679468e-05,2.3097946605778164e-05,2.943220251827998e-05,2.7400704477801104e-06,Unknown
0.09553846000000021,2.447239906111774e-05,3.1804825965759725e-05,8.628737294098744e-05,2.308408160948822e-05,2.616770086188869e-05,2.7407817737225427e-06,Unknown
0.0960576900000003,2.4564484319524783e-05,3.180646386366065e-05,8.628090155085876e-05,2.3065538624490845e-05,1.9805186813156782e-05,2.744979845534074e-06,Unknown
0.0965769200000004,2.4645305434740897e-05,3.1814243695266505e-05,8.627767493265181e-05,2.304830602461928e-05,1.4069840498079405e-05,2.7584860728547624e-06,Unknown
0.09709615000000049,2.467400115205535e-05,3.183365619136702e-05,8.627784860374228e-05,2.303694499110608e-05,1.2509383987345972e-05,2.786205656035855e-06,Unknown
0.09761538000000058,2.4622419517766377e-05,3.1868550636071936e-05,8.6280608924501e-05,2.3033247775971823e-05,1.2502059596570922e-05,2.8282123821486777e-06,Unknown
0.0981346200000015,2.4523399997109293e-05,3.191528050273224e-05,8.628362960083233e-05,2.3034180404882063e-05,1.140239629462048e-05,2.8819740988381797e-06,Unknown
0.0986538500000016,2.4442897773338256e-05,3.1967615450889986e-05,8.628256785410343e-05,2.303353423400943e-05,9.721449533592095e-06,2.946838973808304e-06,Unknown
0.09917308000000169,2.4417987434697576e-05,3.20237280527541e-05,8.62756231425806e-05,2.3030450953979177e-05,8.54500617405811e-06,3.025597111827335e-06,Unknown
0.09969231000000178,2.4437978005333704e-05,3.208357158735798e-05,8.626989168818001e-05,2.302908307241229e-05,8.163401882379701e-06,3.122114980715882e-06,Unknown
0.1002115400000001,2.446754547962541e-05,3.214300552301591e-05,8.627434915297238e-05,2.303297751226313e-05,8.164269459332565e-06,3.233952943159704e-06,Unknown
0.10073077000000019,2.4485142510767927e-05,3.219579430104573e-05,8.628887637983227e-05,2.304442104872581e-05,8.181870331785341e-06,3.342630670219556e-06,Unknown
0.10125000000000028,2.4493440833143112e-05,3.224131636802704e-05,8.630668564957311e-05,2.305797462003065e-05,8.177794666659609e-06,3.417513047810931e-06,Unknown
0.10176923000000038,2.4500443997040183e-05,3.228578284255354e-05,8.632136888044308e-05,2.306464797568696e-05,8.189159389298916e-06,3.4440364321606144e-06,Unknown
0.10228846000000047,2.450867507567619e-05,3.233658106205219e-05,8.632925924841334e-05,2.306530553592741e-05,8.194969822109617e-06,3.444623471723859e-06,Unknown
0.10280769000000056,2.451428386778157e-05,3.239761205653165e-05,8.633061581488178e-05,2.3064876964385518e-05,8.185160869929427e-06,3.4529814058021224e-06,Unknown
0.10332692000000065,2.451500391339336e-05,3.2470113154064785e-05,8.632970530156937e-05,2.306468463343167e-05,8.16550441627916e-06,3.475718654348706e-06,Unknown
0.10384615000000075,2.4514952318862436e-05,3.255780210172419e-05,8.633388114950926e-05,2.3064764319966236e-05,8.136143720797e-06,3.4990349076179524e-06,Unknown
0.10436538000000084,2.4514890549861447e-05,3.266822310002564e-05,8.635165006904327e-05,2.306393946391312e-05,8.10326225416533e-06,3.5151603510720657e-06,Unknown
0.10488462000000176,2.4512949839802634e-05,3.280660169888065e-05,8.6385085882547e-05,2.306217682587522e-05,8.0908091981211e-06,3.526070275451724e-06,Unknown
0.10540385000000008,2.451081847358274e-05,3.296885635112263e-05,8.642759923747871e-05,2.3066773185157252e-05,8.113521624759888e-06,3.535577522826392e-06,Unknown
0.10592308000000017,2.450969724641778e-05,3.314758999329886e-05,8.647273394337619e-05,2.308607182637399e-05,8.154304452962365e-06,3.545977731341509e-06,Unknown
0.10644231000000026,2.4509700949446847e-05,3.334670416946103e-05,8.651611458259033e-05,2.31144250930378e-05,8.193528848207731e-06,3.5580113124190797e-06,Unknown
0.10696154000000035,2.451084670551076e-05,3.35809930105351e-05,8.654614050563447e-05,2.313694194718956e-05,8.232012329592701e-06,3.5714981448836727e-06,Unknown
0.10748077000000045,2.451281587942165e-05,3.3859852522339475e-05,8.65431352656463e-05,2.314452815077709e-05,8.28130958854876e-06,3.585903203042634e-06,Unknown
0.10800000000000054,2.4514037530947493e-05,3.417515711236174e-05,8.64970782352907e-05,2.3136554955618616e-05,8.34951705400117e-06,3.600649062398644e-06,Unknown
0.10851923000000063,2.4507173181220328e-05,3.45077893621215e-05,8.64187714667703e-05,2.312155726733338e-05,8.426451345774206e-06,3.615498401483405e-06,Unknown
0.10903846000000073,2.4484117380020225e-05,3.485018904523285e-05,8.632674803486643e-05,2.3114451429441452e-05,8.486702254720117e-06,3.6308384264727e-06,Unknown
0.10955769000000082,2.4445634043798225e-05,3.5216000872732364e-05,8.622929548212585e-05,2.3116326362724508e-05,8.518085250498428e-06,3.647405580881149e-06,Unknown
0.11007692000000091,2.4397784137919903e-05,3.5618144918381084e-05,8.612115195748725e-05,2.310979980791056e-05,8.530011568849717e-06,3.665545067731421e-06,Unknown
0.110596150000001,2.434337921457853e-05,3.60536434874197e-05,8.599385442483857e-05,2.3085942984571332e-05,8.533664258875423e-06,3.684673899392275e-06,Unknown
0.1111153800000011,2.428093455356705e-05,3.651683160073757e-05,8.584741920370886e-05,2.3050453376709552e-05,8.53242457563433e-06,3.703722210892207e-06,Unknown
0.11163462000000024,2.420648441501476e-05,3.70052083469268e-05,8.569603503537183e-05,2.3006956040601974e-05,8.528622974532992e-06,3.722369481718724e-06,Unknown
0.11215385000000033,2.4112314265994195e-05,3.751650675001359e-05,8.556656309091179e-05,2.295363253504494e-05,8.531205476844076e-06,3.7416786946377698e-06,Unknown
0.11267308000000043,2.398949330172525e-05,3.804763864273999e-05,8.548306744265837e-05,2.288847211674684e-05,8.547852798515329e-06,3.763225449116017e-06,Unknown
0.11319231000000052,2.384205112335208e-05,3.8590827718521526e-05,8.544683112311856e-05,2.2812184256965196e-05,8.573025027905943e-06,3.787120832074111e-06,Unknown
0.11371154000000061,2.369860662162568e-05,3.914021898417415e-05,8.543955305949893e-05,2.272724057328757e-05,8.596292284447026e-06,3.8107095950365024e-06,Unknown
0.1142307700000007,2.3595324976464152e-05,3.969725541101883e-05,8.54433276598912e-05,2.263614275396141e-05,8.61348806592512e-06,3.83040864887604e-06,Unknown
0.1147500000000008,2.354671635699639e-05,4.026316583958435e-05,8.544925706646321e-05,2.254344504139001e-05,8.625646193280813e-06,3.84505264159069e-06,Unknown
0.11526923000000089,2.354356166924942e-05,4.083307003174041e-05,8.545420536020205e-05,2.2457400945246007e-05,8.637002170455414e-06,3.856390765913935e-06,Unknown
0.11578846000000098,2.35705949499494e-05,4.139835868622949e-05,8.545745777804512e-05,2.2383762379046885e-05,8.655442982605377e-06,3.867071072063602e-06,Unknown
0.11630769000000107,2.361806837348401e-05,4.1951331079504665e-05,8.545927250669558e-05,2.2318562521172104e-05,8.69198219824857e-06,3.878700762831761e-06,Unknown
0.11682692000000117,2.368448472677177e-05,4.248487451955256e-05,8.546028051862486e-05,2.2253433283879097e-05,8.750597782044589e-06,3.890273871904165e-06,Unknown
0.11734615000000126,2.37674026427146e-05,4.298879918295213e-05,8.546199262018451e-05,2.218767391753124e-05,8.813881446836375e-06,3.898551034763697e-06,Unknown
0.11786538000000135,2.384835766021499e-05,4.344874839649443e-05,8.54682102062156e-05,2.2132387751315988e-05,8.857828042035823e-06,3.901854443764171e-06,Unknown
0.1183846200000005,2.390888742987972e-05,4.3846529530572175e-05,8.548194606447588e-05,2.2099965821178387e-05,8.878342420832852e-06,3.902187400210051e-06,Unknown
0.11890385000000059,2.396098280666177e-05,4.416122316340621e-05,8.549469748864447e-05,2.208837510097085e-05,8.88466826695553e-06,3.902209757675091e-06,Unknown
0.11942308000000068,2.4028119192229496e-05,4.437864814591511e-05,8.54879677293748e-05,2.2083646910814287e-05,8.883535773443238e-06,3.9025922776308205e-06,Unknown
0.11994231000000077,2.411238676755529e-05,4.450531435594789e-05,8.545892747489065e-05,2.207649190810799e-05,8.879239359809995e-06,3.902907137998362e-06,Unknown
0.12046154000000087,2.420177666729935e-05,4.456639259388518e-05,8.54281428581243e-05,2.206805148977867e-05,8.876072817207316e-06,3.902950550107013e-06,Unknown
0.12098077000000096,2.427985809011138e-05,4.45883794855086e-05,8.541093399055685e-05,2.2064837261181983e-05,8.880014606019796e-06,3.903069548477234e-06,Unknown
0.12150000000000105,2.4328455382074105e-05,4.459112130593482e-05,8.540336492858092e-05,2.2072776242534384e-05,8.896065668411156e-06,3.904044636091627e-06,Unknown
0.12201923000000114,2.4335726311939608e-05,4.459412470266061e-05,8.539659277626791e-05,2.209237711891472e-05,8.922933577423493e-06,3.906122827120602e-06,Unknown
0.12253846000000124,2.428681906866385e-05,4.462872787520258e-05,8.53874362960052e-05,2.2118083026411573e-05,8.955457937433951e-06,3.907852990344675e-06,Unknown
0.12305769000000133,2.4148570779735288e-05,4.474415163385277e-05,8.537549309686885e-05,2.2142191325512876e-05,8.990170839489447e-06,3.907996923962174e-06,Unknown
0.12357692000000142,2.3892808052060923e-05,4.499599936335582e-05,8.536564513991169e-05,2.2159742724216066e-05,9.027333078004314e-06,3.909347744404712e-06,Unknown
0.12409615000000151,2.356538102588675e-05,4.543409709907551e-05,8.536587795113166e-05,2.217049788891268e-05,9.069972771015851e-06,3.9170157610077536e-06,Unknown
0.12461538000000161,2.328639034081044e-05,4.6096546262291546e-05,8.536060258838718e-05,2.2175349997033573e-05,9.119557792091718e-06,3.931918744149481e-06,Unknown
0.12513462000000075,2.3129302632401257e-05,4.699113604903516e-05,8.535222131945885e-05,2.21702168088771e-05,9.169896146855415e-06,3.949687034565455e-06,Unknown
0.12565385000000084,2.306675588711685e-05,4.8081165631809066e-05,8.542381106482257e-05,2.2143762100005825e-05,9.209464629729784e-06,3.966012434663068e-06,Unknown
0.12617308000000094,2.304564738120261e-05,4.931836273736376e-05,8.565026826324858e-05,2.208275759490666e-05,9.234259216444826e-06,3.979919635966807e-06,Unknown
0.12669231000000103,2.304146440335007e-05,5.070379733603915e-05,8.602482997600421e-05,2.1982303792930577e-05,9.25137106000027e-06,3.992502181963605e-06,Unknown
0.12721154000000112,2.305440224933088e-05,5.2286776393716747e-05,8.651113053002986e-05,2.1848681216276745e-05,9.27088887506205e-06,4.004775530780699e-06,Unknown
0.12773077000000121,2.309899791211536e-05,5.406190767655643e-05,8.704133934341102e-05,2.1689725964996747e-05,9.300865552825637e-06,4.016659571178352e-06,Unknown
0.1282500000000013,2.3195681337698785e-05,5.586787574825171e-05,8.74492205319856e-05,2.1504761463695483e-05,9.341750124797024e-06,4.027122816114403e-06,Unknown
0.1287692300000014,2.3351424540109736e-05,5.745130018997447e-05,8.754189980129822e-05,2.128481805080505e-05,9.385593143640126e-06,4.035009226469356e-06,Unknown
0.1292884600000015,2.354815441994849e-05,5.867056141847459e-05,8.742717246762535e-05,2.1022740644827664e-05,9.425431001821744e-06,4.039878531268812e-06,Unknown
0.12980769000000159,2.3767413209292603e-05,5.959047981541278e-05,8.761371093231487e-05,2.072570306949389e-05,9.45643919908987e-06,4.042313645476627e-06,Unknown
0.13032692000000168,2.4015940706763015e-05,6.0383892776182295e-05,8.844598536679624e-05,2.0415587432140952e-05,9.47313920658002e-06,4.043397446665013e-06,Unknown
0.13084615000000177,2.431623923341341e-05,6.12104113723195e-05,8.968595996162867e-05,2.011226929398002e-05,9.477062366472373e-06,4.0439475730193564e-06,Unknown
0.1313653800000001,2.466715223885871e-05,6.216050626371491e-05,9.096112192021146e-05,1.9821914454092092e-05,9.475968191574917e-06,4.044292924707793e-06,Unknown
0.131884620000001,2.499268644521448e-05,6.324114797075143e-05,9.224522649874011e-05,1.9543364267187617e-05,9.475047067433996e-06,4.044461329330984e-06,Unknown
0.1324038500000011,2.5185528329009624e-05,6.438926419451129e-05,9.375292601627392e-05,1.927855437020473e-05,9.477191344634284e-06,4.044479787723092e-06,Unknown
0.1329230800000012,2.52323942913059e-05,6.550189850525523e-05,9.561187113142656e-05,1.903848650593005e-05,9.48583944281613e-06,4.044441101567984e-06,Unknown
0.13344231000000129,2.5217848287054088e-05,6.648055222489927e-05,9.758410002351522e-05,1.8832974064671592e-05,9.50247468515086e-06,4.044416429031469e-06,Unknown
0.13396154000000138,2.521098277606366e-05,6.727471162341524e-05,9.912767788607015e-05,1.865470560104265e-05,9.520919136902948e-06,4.0444716066815e-06,Unknown
0.13448077000000147,2.5224090917993228e-05,6.78922431310244e-05,9.983962673838178e-05,1.849061877169664e-05,9.532550826648558e-06,4.044556291681864e-06,Unknown
0.13500000000000156,2.525648816010791e-05,6.83748964817544e-05,9.971712258630989e-05,1.8337409407808857e-05,9.537334957179435e-06,4.044583768061927e-06,Unknown
0.13551923000000166,2.532369570106421e-05,6.876630585198908e-05,9.902129826732296e-05,1.8199326308327865e-05,9.541139980620135e-06,4.044583153899678e-06,Unknown
0.13603846000000175,2.5446127836862945e-05,6.909017846583661e-05,9.809417067354344e-05,1.8085984592302583e-05,9.54944634279364e-06,4.044583102144118e-06,Unknown
0.13655769000000006,2.5602981492501212e-05,6.934180319135174e-05,9.730474125076784e-05,1.800605936482965e-05,9.565479082100702e-06,4.044586660644473e-06,Unknown
0.13707692000000016,2.5726209868086103e-05,6.94968114911683e-05,9.694154441318775e-05,1.7958231166340505e-05,9.586179235767144e-06,4.044596204651408e-06,Unknown
0.13759615000000025,2.577698456416732e-05,6.953823356536224e-05,9.697196592429264e-05,1.793416794018558e-05,9.604053117146412e-06,4.044588858872433e-06,Unknown
0.13811538000000034,2.5778826635391383e-05,6.948738827772572e-05,9.69669792736319e-05,1.7925739954103197e-05,9.615939766049829e-06,4.0445843957867314e-06,Unknown
0.13863462000000126,2.575996226038218e-05,6.941557409759352e-05,9.640606446264498e-05,1.7926594508105974e-05,9.62472755595159e-06,4.044672400884e-06,Unknown
0.13915385000000136,2.571349098869466e-05,6.94140085803323e-05,9.506612290549096e-05,1.7933529693304517e-05,9.63599695099446e-06,4.044976839780366e-06,Unknown
0.13967308000000145,2.5647559608011044e-05,6.952494194059385e-05,9.313751354914936e-05,1.7948396612444657e-05,9.655234394398473e-06,4.0456956903050745e-06,Unknown
0.14019231000000154,2.5627274272813923e-05,6.970695872310486e-05,9.106032286152784e-05,1.7974757564050354e-05,9.6805999053429e-06,4.047009371048436e-06,Unknown
0.14071154000000163,2.5706168982487424e-05,6.989177645140977e-05,8.924430383571778e-05,1.8010926116347085e-05,9.702951757919033e-06,4.048798370727108e-06,Unknown
0.14123077000000173,2.586573717560052e-05,7.005442499719895e-05,8.785022331545136e-05,1.804883707671737e-05,9.718189255081356e-06,4.050654564159248e-06,Unknown
0.14175000000000182,2.6051120112899443e-05,7.021603359336299e-05,8.679397720115328e-05,1.8082585308317195e-05,9.72760967068052e-06,4.052226913223747e-06,Unknown
0.14226923000000014,2.6224353728203377e-05,7.041356908589893e-05,8.594405672180545e-05,1.811418740866529e-05,9.734548203528716e-06,4.0533928044420646e-06,Unknown
0.14278846000000023,2.637800921764664e-05,7.067652424668357e-05,8.530266351002668e-05,1.8149165351330367e-05,9.745666824505666e-06,4.0541675139287685e-06,Unknown
0.14330769000000032,2.651158913855672e-05,7.101535743949515e-05,8.500006133302375e-05,1.81879353724628e-05,9.760891648594956e-06,4.05463942268871e-06,Unknown
0.1438269200000004,2.661446631049813e-05,7.142486284427185e-05,8.511731708037052e-05,1.82204669693877e-05,9.77313022346333e-06,4.054985822507166e-06,Unknown
0.1443461500000005,2.668535583708723e-05,7.189327281961016e-05,8.558813793080516e-05,1.8232719530835563e-05,9.780927525899938e-06,4.055407854397279e-06,Unknown
0.1448653800000006,2.674074060791284e-05,7.24070538748498e-05,8.626381157785097e-05,1.822244132319052e-05,9.787463049160116e-06,4.055974152222189e-06,Unknown
0.14538462000000152,2.6795753795596536e-05,7.295503613182732e-05,8.697025365424712e-05,1.821039187293707e-05,9.795902786366238e-06,4.056589488205164e-06,Unknown
0.1459038500000016,2.6850958477804404e-05,7.35329691818319e-05,8.755535723315787e-05,1.822298050156165e-05,9.806884060556436e-06,4.057159998504181e-06,Unknown
0.1464230800000017,2.689389479688552e-05,7.413841075476157e-05,8.796424004283745e-05,1.82379989497689e-05,9.815592945454992e-06,4.057710744022286e-06,Unknown
0.1469423100000018,2.691068611551986e-05,7.475681584052662e-05,8.824406857710907e-05,1.81832616900396e-05,9.818746745344926e-06,4.058387344761263e-06,Unknown
0.1474615400000001,2.6898049990510164e-05,7.536134101019663e-05,8.846111279956197e-05,1.805040437453224e-05,9.81902486070039e-06,4.059435316208503e-06,Unknown
0.1479807700000002,2.6862776660076564e-05,7.593353212831164e-05,8.863470248283036e-05,1.7942049850766742e-05,9.819308044662991e-06,4.061065182783392e-06,Unknown
0.1485000000000003,2.682285890045725e-05,7.647795554623508e-05,8.870793011245998e-05,1.7922441612561395e-05,9.81880537244484e-06,4.063295003287134e-06,Unknown
0.1490192300000004,2.6820644316543144e-05,7.701281372536153e-05,8.853348389196762e-05,1.791060611126279e-05,9.816603557454627e-06,4.065940298061798e-06,Unknown
0.14953846000000048,2.690795793602737e-05,7.755124154225673e-05,8.793739345153804e-05,1.7777436235086102e-05,9.814649995986656e-06,4.068680489075712e-06,Unknown
0.15005769000000058,2.7094902908166702e-05,7.809322924612803e-05,8.686718259709511e-05,1.7446356191127366e-05,9.814736367766643e-06,4.071156100002404e-06,Unknown
0.15057692000000067,2.7334145576227437e-05,7.863050406915653e-05,8.551691570554e-05,1.6885370517246403e-05,9.815781407769137e-06,4.073109362450412e-06,Unknown
0.15109615000000076,2.7571840466411664e-05,7.915106955473728e-05,8.429141529488573e-05,1.609443900738479e-05,9.81606714387825e-06,4.074435138024374e-06,Unknown
0.15161538000000085,2.77939174345473e-05,7.963653092978762e-05,8.355310178243298e-05,1.5141973304475808e-05,9.816031618352045e-06,4.075066147390872e-06,Unknown
0.15213462000000177,2.8024391086455712e-05,8.006244318406661e-05,8.334152118782155e-05,1.417482342503588e-05,9.815861782242388e-06,4.074954711601193e-06,Unknown
0.1526538500000001,2.831090574126625e-05,8.040858398891264e-05,8.336726491432014e-05,1.3334692216727392e-05,9.81586207427481e-06,4.074303405634543e-06,Unknown
0.15317308000000018,2.8711719102563462e-05,8.066838854808457e-05,8.327086842758132e-05,1.2666535206649295e-05,9.81634522722189e-06,4.0736499904286975e-06,Unknown
0.15369231000000028,2.924985413175953e-05,8.085126090792717e-05,8.2858953413927e-05,1.2133811900786796e-05,9.815146969683438e-06,4.073576944036636e-06,Unknown
0.15421154000000037,2.986179942733327e-05,8.098207114156908e-05,8.216066943815027e-05,1.1691669853724142e-05,9.815513438292775e-06,4.074441731912284e-06,Unknown
0.15473077000000046,3.0437108066480088e-05,8.108742060330092e-05,8.135747531642653e-05,1.13308946988783e-05,9.828879422433457e-06,4.076333972720083e-06,Unknown
0.15525000000000055,3.0907675270770847e-05,8.117238836809978e-05,8.066159599244172e-05,1.1075256785250422e-05,9.85918665340994e-06,4.078973911368028e-06,Unknown
0.15576923000000065,3.12658414066786e-05,8.122734599620041e-05,8.01911450328745e-05,1.0943239555254902e-05,9.89543601372234e-06,4.081609038520139e-06,Unknown
0.15628846000000074,3.152935966844335e-05,8.125357948184104e-05,7.992839065881482e-05,1.0918301594158213e-05,9.92317984634938e-06,4.083377363641934e-06,Unknown
0.15680769000000083,3.171795805257936e-05,8.126041870962473e-05,7.979476011002333e-05,1.0960090702752456e-05,9.93618482223892e-06,4.083846991640265e-06,Unknown
0.15732692000000092,3.184568852104976e-05,8.125506050183299e-05,7.973601982521043e-05,1.1035711160020702e-05,9.939102662150347e-06,4.083101356244209e-06,Unknown
0.15784615000000102,3.192153235878082e-05,8.12516459506845e-05,7.973579684528784e-05,1.1137539223000444e-05,9.939437837913212e-06,4.081659009347629e-06,Unknown
0.1583653800000011,3.1955564783129066e-05,8.1275080035919e-05,7.978032431010421e-05,1.1276518143604946e-05,9.939775048286303e-06,4.080215186626661e-06,Unknown
0.15888462000000025,3.196348922922745e-05,8.13492774221483e-05,7.984073957109655e-05,1.144856797198997e-05,9.943536914564655e-06,4.079022560109398e-06,Unknown
0.15940385000000035,3.196301677878051e-05,8.14861854486602e-05,7.989998142161909e-05,1.1588742636426189e-05,9.95439814552304e-06,4.077554792643204e-06,Unknown
0.15992308000000044,3.196619914754756e-05,8.168463233520916e-05,7.996143854243402e-05,1.160022712250622e-05,9.968835852535296e-06,4.074519517827318e-06,Unknown
0.16044231000000053,3.1979258843223866e-05,8.193522140515385e-05,8.002963598642836e-05,1.1479829779864662e-05,9.981888710798693e-06,4.06812167392819e-06,Unknown
0.16096154000000062,3.200848819166546e-05,8.222453751561831e-05,8.0107442658554e-05,1.1342689121339144e-05,9.991254351437828e-06,4.05680901189316e-06,Unknown
0.16148077000000072,3.20612375162688e-05,8.253681058118339e-05,8.0204483463342e-05,1.1274330357648092e-05,9.996011543650435e-06,4.0397510220163726e-06,Unknown
0.1620000000000008,3.2139358834668554e-05,8.28557498945856e-05,8.033438825267713e-05,1.1260251764661167e-05,9.99575966348126e-06,4.016485087874761e-06,Unknown
0.1625192300000009,3.223650459778539e-05,8.316712574760265e-05,8.050306810691499e-05,1.1263014843564868e-05,9.988118156103311e-06,3.987019271815708e-06,Unknown
0.163038460000001,3.2343679000241095e-05,8.345943061397651e-05,8.070353828973576e-05,1.12696742004689e-05,9.970693675682758e-06,3.954115228108413e-06,Unknown
0.1635576900000011,3.245201481056738e-05,8.372286935972698e-05,8.091930047483058e-05,1.1293295047357104e-05,9.948610530583045e-06,3.92628956678369e-06,Unknown
0.16407692000000118,3.2547591821049e-05,8.394941549922101e-05,8.113542786989932e-05,1.134187952471706e-05,9.93089762197076e-06,3.914613789896513e-06,Unknown
0.16459615000000127,3.259935869115003e-05,8.41336253968778e-05,8.134987492800218e-05,1.1365667392870474e-05,9.91849202502706e-06,3.920786229737465e-06,Unknown
0.16511538000000137,3.2561092736871366e-05,8.427340958423502e-05,8.157105527465015e-05,1.1323591052689156e-05,9.906606626515676e-06,3.931461033369076e-06,Unknown
0.1656346200000005,3.240844323265319e-05,8.436952889695744e-05,8.180430111489068e-05,1.1288274878726849e-05,9.890695996785224e-06,3.930907398429027e-06,Unknown
0.1661538500000006,3.2206802644893e-05,8.442164791690808e-05,8.204274765626802e-05,1.135682934874056e-05,9.873264426233082e-06,3.91597466728177e-06,Unknown
0.1666730800000007,3.209298860893838e-05,8.443046514816939e-05,8.226974762670961e-05,1.15136257588561e-05,9.8657251223819e-06,3.895064747071426e-06,Unknown
0.1671923100000008,3.211120131492449e-05,8.440795080292662e-05,8.245248656565718e-05,1.1683222087262836e-05,9.867520485150765e-06,3.877253690240921e-06,Unknown
0.16771154000000088,3.215959225935176e-05,8.437371050999496e-05,8.252707810612953e-05,1.1835348342088016e-05,9.86859607739035e-06,3.865963354918973e-06,Unknown
0.16823077000000097,3.211825237201983e-05,8.433827792210431e-05,8.24421289583318e-05,1.198740381484843e-05,9.86968342013362e-06,3.860190942667333e-06,Unknown
0.16875000000000107,3.193755612715677e-05,8.429789894679889e-05,8.223666995330554e-05,1.2159368815652572e-05,9.868478885902808e-06,3.8579194986429846e-06,Unknown
0.16926923000000116,3.164848082276212e-05,8.424139216943296e-05,8.201166833080164e-05,1.2340953474096288e-05,9.852719437438836e-06,3.857828911933845e-06,Unknown
0.16978846000000125,3.134301316523196e-05,8.41594197919347e-05,8.183099041363353e-05,1.249786940367108e-05,9.813862680323174e-06,3.859146252961732e-06,Unknown
0.17030769000000134,3.111148858717131e-05,8.405618126915333e-05,8.170176377278929e-05,1.261052465332313e-05,9.75091518280375e-06,3.860865337613467e-06,Unknown
0.17082692000000144,3.097857666946719e-05,8.395280490766046e-05,8.161939002652551e-05,1.2690726323156486e-05,9.670449076392205e-06,3.861348008428108e-06,Unknown
0.17134615000000153,3.091905410927372e-05,8.387303885887105e-05,8.158918670366529e-05,1.276331088925351e-05,9.585366458361397e-06,3.8575481009458295e-06,Unknown
0.17186538000000162,3.091447192804473e-05,8.382787603706735e-05,8.160101684016088e-05,1.283935624092461e-05,9.505712832085215e-06,3.844395722048707e-06,Unknown
0.17238462000000077,3.096620056655009e-05,8.381413045497435e-05,8.159695981349964e-05,1.2905292202177836e-05,9.431483672895372e-06,3.81867006349197e-06,Unknown
0.17290385000000086,3.105846676736624e-05,8.381988159129071e-05,8.148843348815378e-05,1.2941547308576346e-05,9.359415312139417e-06,3.783984926096672e-06,Unknown
0.17342308000000095,3.1133804496984535e-05,8.382911431762457e-05,8.121894855812008e-05,1.2946963669860675e-05,9.297955101802112e-06,3.748095893333253e-06,Unknown
0.17394231000000104,3.1169050045002145e-05,8.382707947876275e-05,8.081665969094597e-05,1.2936741444200044e-05,9.267950480742238e-06,3.716745207473378e-06,Unknown
0.17446154000000114,3.119924135101788e-05,8.380758103978555e-05,8.038839380337693e-05,1.292384909641985e-05,9.267564504459432e-06,3.692533608075444e-06,Unknown
0.17498077000000123,3.1211274477428575e-05,8.377636014192974e-05,8.004892989379149e-05,1.2911458831511656e-05,9.246954716791197e-06,3.6768444572970857e-06,Unknown
0.17550000000000132,3.11821322418836e-05,8.374460924462753e-05,7.985015847363332e-05,1.2898102725229848e-05,9.15761668138915e-06,3.6699248741599215e-06,Unknown
0.17601923000000141,3.115489137448122e-05,8.371963791140087e-05,7.978204373047714e-05,1.288470006892342e-05,9.01193035961492e-06,3.6696160839760496e-06,Unknown
0.1765384600000015,3.115353833160733e-05,8.37032934562057e-05,7.981397106064538e-05,1.2879529615576795e-05,8.860629396282567e-06,3.671859358487341e-06,Unknown
0.1770576900000016,3.1151852870264125e-05,8.36958914805225e-05,7.989828148399468e-05,1.2897926431101154e-05,8.733800598687808e-06,3.673090254223956e-06,Unknown
0.1775769200000017,3.113704762406979e-05,8.36971140634782e-05,7.994661248913768e-05,1.295632301724046e-05,8.623931709944844e-06,3.671935699750052e-06,Unknown
0.17809615000000178,3.1120332095763324e-05,8.370383479079603e-05,7.987523027851485e-05,1.3061025738959508e-05,8.509928826096486e-06,3.668845066929565e-06,Unknown
0.1786153800000001,3.110615804726021e-05,8.37113382159365e-05,7.970460149529507e-05,1.319528512222104e-05,8.388090060038372e-06,3.664646032683999e-06,Unknown
0.17913462000000102,3.1096762720145073e-05,8.371589075669839e-05,7.953873487261087e-05,1.3321757868743007e-05,8.27728204675166e-06,3.659767965062423e-06,Unknown
0.17965385000000111,3.109816908323706e-05,8.371346814223307e-05,7.944532187031424e-05,1.341083063991781e-05,8.196690285587572e-06,3.655005675758406e-06,Unknown
0.1801730800000012,3.109455609799543e-05,8.369923103153658e-05,7.943014227024217e-05,1.346487486653068e-05,8.14897607634477e-06,3.653154641257896e-06,Unknown
0.1806923100000013,3.106136877432126e-05,8.367538974027749e-05,7.94903608636488e-05,1.3509662469432866e-05,8.124512364389304e-06,3.6580607184188152e-06,Unknown
0.1812115400000014,3.100494744270281e-05,8.365640671768653e-05,7.96312319989976e-05,1.356915403311301e-05,8.112402639765695e-06,3.669756464645144e-06,Unknown
0.18173077000000148,3.095125169117067e-05,8.365414912547366e-05,7.982943342805533e-05,1.3636291791087658e-05,8.104480936525648e-06,3.68327649954756e-06,Unknown
0.18225000000000158,3.091495473773665e-05,8.366319636073165e-05,8.002061105260201e-05,1.367412568186124e-05,8.09294132915974e-06,3.694782027805439e-06,Unknown
0.18276923000000167,3.089732796750682e-05,8.36712542382568e-05,8.015746492247964e-05,1.3672794564454878e-05,8.064601638076265e-06,3.7051690873567994e-06,Unknown
0.18328846000000176,3.0897136122593455e-05,8.36737373889394e-05,8.02509180623209e-05,1.3660240031753769e-05,7.999413671064116e-06,3.7160012080447807e-06,Unknown
0.18380769000000008,3.091504442729725e-05,8.367256664729302e-05,8.033762063083816e-05,1.364561017041928e-05,7.890571887513034e-06,3.725603216467316e-06,Unknown
0.18432692000000017,3.0950144450877624e-05,8.367060742649032e-05,8.043598031773645e-05,1.3631666183842886e-05,7.770739776811885e-06,3.7305035123795e-06,Unknown
0.18484615000000026,3.099457482391816e-05,8.36700442623944e-05,8.053912093023137e-05,1.3650369013922227e-05,7.690825125283082e-06,3.728359906309777e-06,Unknown
0.18536538000000036,3.103400278317583e-05,8.367308531370902e-05,8.062785826189664e-05,1.371206078468788e-05,7.664292316969758e-06,3.718817225544462e-06,Unknown
0.18588462000000128,3.105855927006225e-05,8.368312823806964e-05,8.068221377160237e-05,1.3779359025639476e-05,7.665161375586404e-06,3.703123475898565e-06,Unknown
0.18640385000000137,3.108452255411148e-05,8.370341575540869e-05,8.068736806422467e-05,1.3821859888282524e-05,7.673812879887157e-06,3.683928915691392e-06,Unknown
0.18692308000000146,3.116524346980899e-05,8.373368610917279e-05,8.063937258404127e-05,1.384423626234953e-05,7.685593374499613e-06,3.665089854108198e-06,Unknown
0.18744231000000156,3.134798102664351e-05,8.37689221870597e-05,8.055921111630102e-05,1.3863295145794024e-05,7.69394901940281e-06,3.6505631727850336e-06,Unknown
0.18796154000000165,3.1608516968420735e-05,8.380119947240952e-05,8.049404318328333e-05,1.3889006489170042e-05,7.685943013129497e-06,3.642416077308488e-06,Unknown
0.18848077000000174,3.186200886289159e-05,8.382254043679808e-05,8.047102656795618e-05,1.3924389068828423e-05,7.647586819534673e-06,3.6397462464798665e-06,Unknown
0.18900000000000006,3.204432197668479e-05,8.382801965145753e-05,8.04698579659307e-05,1.3968597542335568e-05,7.592771592054186e-06,3.640038864311572e-06,Unknown
0.18951923000000015,3.2156028471981285e-05,8.381943661890153e-05,8.046936665450423e-05,1.4018399338906503e-05,7.55888628722468e-06,3.64133206349295e-06,Unknown
0.19003846000000024,3.222878639005298e-05,8.380574607532172e-05,8.047043247636676e-05,1.406994697163502e-05,7.554258497202098e-06,3.6427890852944975e-06,Unknown
0.19055769000000033,3.227981302686758e-05,8.379679017311322e-05,8.047391546976732e-05,1.4117097590324948e-05,7.557779233871458e-06,3.6440259812509647e-06,Unknown
0.19107692000000043,3.230748359953848e-05,8.379763951451518e-05,8.047878746330538e-05,1.4154505798892863e-05,7.542069044136251e-06,3.644161327962012e-06,Unknown
0.19159615000000052,3.23141983784422e-05,8.380944931359312e-05,8.048690879563098e-05,1.4185570638706496e-05,7.491377098695246e-06,3.6414233499271626e-06,Unknown
0.1921153800000006,3.231413971238161e-05,8.38324222431885e-05,8.049949126924064e-05,1.4217084897071526e-05,7.433912019052968e-06,3.634327649335095e-06,Unknown
0.19263462000000153,3.231436611469702e-05,8.38676285399593e-05,8.051626915872599e-05,1.4245337498065084e-05,7.407637394484045e-06,3.6230221375706474e-06,Unknown
0.19315385000000163,3.2309611860196635e-05,8.391495564691006e-05,8.053687225418774e-05,1.4258790334764232e-05,7.410360993863608e-06,3.6091780960455296e-06,Unknown
0.19367308000000172,3.230202386451384e-05,8.397002037187445e-05,8.056171573803159e-05,1.425959370757719e-05,7.423095984682566e-06,3.5953731995911424e-06,Unknown
0.1941923100000018,3.23030283551942e-05,8.402730153708652e-05,8.059273506929205e-05,1.4261750800910478e-05,7.436006072152285e-06,3.584630922052622e-06,Unknown
0.19471154000000013,3.231409743424054e-05,8.40828402141067e-05,8.063468736202402e-05,1.42674429487201e-05,7.445534977931967e-06,3.5791941905531145e-06,Unknown
0.19523077000000022,3.232563189798467e-05,8.41323424674345e-05,8.069393423825377e-05,1.4269877621503816e-05,7.450798132591975e-06,3.57881969255622e-06,Unknown
0.1957500000000003,3.233097108141923e-05,8.417214623829069e-05,8.0776064612338e-05,1.426798856659823e-05,7.452784294107105e-06,3.5808133109097247e-06,Unknown
0.1962692300000004,3.233033105050871e-05,8.420186749072745e-05,8.088062755256814e-05,1.4274243773597133e-05,7.45315026622901e-06,3.582205602850552e-06,Unknown
0.1967884600000005,3.232622293422879e-05,8.422414903282231e-05,8.099005924649835e-05,1.4326029179075676e-05,7.452968198657873e-06,3.581705103540834e-06,Unknown
0.1973076900000006,3.2318382955636005e-05,8.424307892711452e-05,8.108056141279611e-05,1.4464304395557592e-05,7.45181485489645e-06,3.5798037150966118e-06,Unknown
0.19782692000000068,3.230406497913572e-05,8.426110831051014e-05,8.115030772896147e-05,1.465937311709072e-05,7.450492247514741e-06,3.5775380357176466e-06,Unknown
0.19834615000000078,3.2284116680171274e-05,8.427595340235866e-05,8.121337187342669e-05,1.4816547535280972e-05,7.450965288318347e-06,3.575415895173341e-06,Unknown
0.19886538000000087,3.226909595251971e-05,8.428432801682511e-05,8.127711884911157e-05,1.4892346255290622e-05,7.452830607325604e-06,3.573426605289488e-06,Unknown
0.1993846200000018,3.228024559417575e-05,8.428751800563958e-05,8.134016957199676e-05,1.491811021997784e-05,7.454049869068299e-06,3.5715071383091046e-06,Unknown
0.1999038500000001,3.233333909810809e-05,8.428991983683808e-05,8.139763273676514e-05,1.4927779841898703e-05,7.453506690456232e-06,3.56970779299352e-06,Unknown
0.2004230800000002,3.241741458726576e-05,8.429542135796958e-05,8.145039182729961e-05,1.4931823274084855e-05,7.450375707490564e-06,3.568225772097726e-06,Unknown
0.2009423100000003,3.2508340354638923e-05,8.430577539914202e-05,8.150979051117052e-05,1.493101160203775e-05,7.447022912713053e-06,3.5673812184884998e-06,Unknown
0.20146154000000038,3.260348263534076e-05,8.432044476612521e-05,8.158381596510077e-05,1.492804310871373e-05,7.449691202272476e-06,3.5673739526950065e-06,Unknown
0.20198077000000048,3.272436395140821e-05,8.433692205032213e-05,8.166814701403631e-05,1.492596952864132e-05,7.444502031462205e-06,3.568059382870656e-06,Unknown
0.20250000000000057,3.289217601311389e-05,8.435127184018698e-05,8.175312942209549e-05,1.4924626825761055e-05,7.4072218305495e-06,3.5690417936926806e-06,Unknown
0.20301923000000066,3.310341439387393e-05,8.436078746923348e-05,8.182864485954756e-05,1.4923771896391803e-05,7.354218073457433e-06,3.569875370007349e-06,Unknown
0.20353846000000075,3.33177606342282e-05,8.436511060609732e-05,8.188585719476117e-05,1.4923673128152933e-05,7.32019632561675e-06,3.5701730543942536e-06,Unknown
0.20405769000000085,3.34856620512986e-05,8.436203444211559e-05,8.19213519232145e-05,1.4924486301213731e-05,7.312410253697248e-06,3.5698531165296557e-06,Unknown
0.20457692000000094,3.359320561886473e-05,8.434419301789583e-05,8.193866153939023e-05,1.4924439661875073e-05,7.325370225174006e-06,3.569434292494004e-06,Unknown
0.20509615000000103,3.3661838625649835e-05,8.430310662251448e-05,8.19440222754172e-05,1.4921771354791387e-05,7.343820160234231e-06,3.5694859961524053e-06,Unknown
0.20561538000000112,3.3713576585543146e-05,8.423726032834593e-05,8.194043757986276e-05,1.49174872055723e-05,7.346898948775056e-06,3.569375106697177e-06,Unknown
0.20613462000000027,3.3753527479532614e-05,8.415425835581425e-05,8.192788598562474e-05,1.4913116312007276e-05,7.3356230685352435e-06,3.567843618538191e-06,Unknown
0.20665385000000036,3.377881798058342e-05,8.406259996370693e-05,8.190935881923739e-05,1.4918340859668394e-05,7.323160344835879e-06,3.565435168435531e-06,Unknown
0.20717308000000045,3.379437018783347e-05,8.39640218095342e-05,8.189134364132927e-05,1.497011507993115e-05,7.314396060159551e-06,3.5643451647544745e-06,Unknown
0.20769231000000055,3.381801263020742e-05,8.385595648625159e-05,8.187757397761074e-05,1.5136768328418334e-05,7.308196873625223e-06,3.565814693914793e-06,Unknown
0.20821154000000064,3.386567721051984e-05,8.37370709903355e-05,8.186759271532338e-05,1.5473315037795475e-05,7.305140028763344e-06,3.569536786054906e-06,Unknown
0.20873077000000073,3.3932171179477344e-05,8.360710593652751e-05,8.186053475882478e-05,1.594672559870235e-05,7.314427801108293e-06,3.5745848564679245e-06,Unknown
0.20925000000000082,3.399747488754966e-05,8.346463084522232e-05,8.185645874912436e-05,1.6432879112601283e-05,7.338726587863132e-06,3.5795790281500347e-06,Unknown
0.20976923000000092,3.4045863393660233e-05,8.331188342334656e-05,8.185519551474135e-05,1.6811399455630193e-05,7.360340085795718e-06,3.5831740928321344e-06,Unknown
0.210288460000001,3.4067431626006005e-05,8.316409111603427e-05,8.185591915696328e-05,1.7039167970299437e-05,7.364570775872159e-06,3.585165460136156e-06,Unknown
0.2108076900000011,3.406244046435117e-05,8.304567474195265e-05,8.18583393567561e-05,1.7140325050933627e-05,7.356717225106939e-06,3.5862967600973626e-06,Unknown
0.2113269200000012,3.404841704538605e-05,8.296939610980415e-05,8.186353440991529e-05,1.716580316322112e-05,7.351039646533109e-06,3.587186965148232e-06,Unknown
0.2118461500000013,3.404096894725277e-05,8.292737902997474e-05,8.187255150637944e-05,1.7163778873168196e-05,7.353252482421188e-06,3.587895537450797e-06,Unknown
0.21236538000000138,3.404014070962553e-05,8.290361214332048e-05,8.18851883297768e-05,1.7160963103726217e-05,7.354151801636204e-06,3.588165978239641e-06,Unknown
0.21288462000000052,3.404137770032847e-05,8.288376879650298e-05,8.190097444154044e-05,1.71602594225108e-05,7.347243935796989e-06,3.5880230826672336e-06,Unknown
0.21340385000000062,3.404242240105499e-05,8.285679379448158e-05,8.192020885677918e-05,1.7160798120098387e-05,7.340723581365314e-06,3.587814401895215e-06,Unknown
0.2139230800000007,3.404130299031363e-05,8.281743853081124e-05,8.194341246719913e-05,1.7177465401913695e-05,7.341392925105698e-06,3.5879163657532003e-06,Unknown
0.2144423100000008,3.403777184551189e-05,8.276902779737838e-05,8.197048357147639e-05,1.7232471530572865e-05,7.344571952454114e-06,3.589109997351488e-06,Unknown
0.2149615400000009,3.403671062661555e-05,8.272147750134003e-05,8.200124758161491e-05,1.7329353370493707e-05,7.34515541012212e-06,3.592271159593648e-06,Unknown
0.215480770000001,3.40420485132725e-05,8.26843349125367e-05,8.20362747168392e-05,1.7447595960459995e-05,7.3449590016143325e-06,3.596510359125403e-06,Unknown
0.21600000000000108,3.405122487555496e-05,8.266137969858751e-05,8.207568553938386e-05,1.756611047162423e-05,7.347118863774941e-06,3.5990461245230867e-06,Unknown
0.21651923000000117,3.4058548464307145e-05,8.265214821154282e-05,8.211722976734802e-05,1.7681223225950517e-05,7.350369185084765e-06,3.5985059575852344e-06,Unknown
0.21703846000000127,3.405977008039925e-05,8.265590625170487e-05,8.215690372547742e-05,1.7800955404234166e-05,7.351940350133887e-06,3.596978619054894e-06,Unknown
0.21755769000000136,3.405597376158849e-05,8.267120656844301e-05,8.219168151179234e-05,1.792777694432166e-05,7.352610434707655e-06,3.597566148015844e-06,Unknown
0.21807692000000145,3.4051707217139014e-05,8.269324206180268e-05,8.222261634673931e-05,1.8050732179340945e-05,7.355220261556256e-06,3.601315130277691e-06,Unknown
0.21859615000000154,3.40493106102573e-05,8.27149920961957e-05,8.225767545128686e-05,1.8159069016478662e-05,7.361281612113095e-06,3.6076392824288375e-06,Unknown
0.21911538000000164,3.4049606546950685e-05,8.273120126442425e-05,8.23073144009319e-05,1.825444842372843e-05,7.361643228847511e-06,3.6160628509188975e-06,Unknown
0.21963462000000078,3.405722237819887e-05,8.274053304626618e-05,8.237229259853721e-05,1.8343576333617597e-05,7.337285879780564e-06,3.625740184317087e-06,Unknown
0.22015385000000087,3.407856425617855e-05,8.274446477508565e-05,8.244123407607344e-05,1.842567064888234e-05,7.2925317494820015e-06,3.6348053951653287e-06,Unknown
0.22067308000000097,3.411491951441668e-05,8.274504537657639e-05,8.250356951338352e-05,1.8490685577716675e-05,7.255210468795239e-06,3.6413909457106455e-06,Unknown
0.22119231000000106,3.416296958338783e-05,8.274372136123139e-05,8.255917250813003e-05,1.853073591865682e-05,7.233058458086387e-06,3.643215796940712e-06,Unknown
0.22171154000000115,3.4222225826532494e-05,8.274070659767974e-05,8.261484045842648e-05,1.854912883557433e-05,7.210193563507558e-06,3.6363660189503695e-06,Unknown
0.22223077000000124,3.429824738276725e-05,8.273455238684763e-05,8.267687531931375e-05,1.855502706346393e-05,7.173718179634961e-06,3.617370941660946e-06,Unknown
0.22275000000000134,3.439267055333451e-05,8.272432310302505e-05,8.274594748114048e-05,1.8555147037666915e-05,7.130517098292538e-06,3.585901944294512e-06,Unknown
0.22326923000000143,3.449733113392736e-05,8.271220084321198e-05,8.281720502514781e-05,1.8553735239349272e-05,7.098274533907345e-06,3.543482522359856e-06,Unknown
0.22378846000000152,3.460597878360483e-05,8.270107658008939e-05,8.288484912810423e-05,1.8554187019116128e-05,7.08044759116307e-06,3.4900805003142457e-06,Unknown
0.2243076900000016,3.4721750979193235e-05,8.269060384599377e-05,8.293980345302477e-05,1.855827603995773e-05,7.0677382336513965e-06,3.422332578391613e-06,Unknown
0.2248269200000017,3.4854620339803535e-05,8.267884070824184e-05,8.296607657306473e-05,1.8567129595306783e-05,7.050108352328466e-06,3.334821106426258e-06,Unknown
0.2253461500000018,3.5013219779904106e-05,8.266674511429512e-05,8.295505895901514e-05,1.857931805203198e-05,7.020262917984292e-06,3.2266857947130115e-06,Unknown
0.22586538000000012,3.519083270051633e-05,8.265792029097707e-05,8.291900903036415e-05,1.859222480407194e-05,6.980542181386526e-06,3.11409285529282e-06,Unknown
0.22638462000000104,3.536984660342964e-05,8.265441319087611e-05,8.287828897581875e-05,1.861245747421192e-05,6.943956294666645e-06,3.032024016421305e-06,Unknown
0.22690385000000113,3.5539950124174764e-05,8.265533438226524e-05,8.284444036399965e-05,1.865109273082225e-05,6.921669341068683e-06,3.0031208208527456e-06,Unknown
0.22742308000000122,3.5700667368127544e-05,8.265958158734034e-05,8.282232105482753e-05,1.870770723175096e-05,6.9133011243455045e-06,3.0058495024284084e-06,Unknown
0.2279423100000013,3.5852850429743935e-05,8.266812046124913e-05,8.281621770148814e-05,1.87747243956422e-05,6.911993126490087e-06,3.001388029425554e-06,Unknown
0.2284615400000014,3.5988700138644125e-05,8.268152763978167e-05,8.282192541529145e-05,1.884764426426855e-05,6.912148684499125e-06,2.9798472141454938e-06,Unknown
0.2289807700000015,3.609437930656203e-05,8.269454584277794e-05,8.282254015158747e-05,1.892117820561096e-05,6.910099803555076e-06,2.9558093932998334e-06,Unknown
0.2295000000000016,3.61669476491325e-05,8.269681681559805e-05,8.280589481996199e-05,1.8990543027651e-05,6.900959700354152e-06,2.939018444179786e-06,Unknown
0.23001923000000168,3.621585694327332e-05,8.268129472964861e-05,8.277687523623929e-05,1.9057070637116403e-05,6.877495673526854e-06,2.928089269578902e-06,Unknown
0.23053846000000178,3.625139923184794e-05,8.264932948222514e-05,8.274533053331683e-05,1.9119906876069297e-05,6.836055057543769e-06,2.918783898386002e-06,Unknown
0.2310576900000001,3.6279992367456746e-05,8.260594880223932e-05,8.271398297362137e-05,1.917475645049485e-05,6.784859854125244e-06,2.908139671669716e-06,Unknown
0.23157692000000019,3.63036506194159e-05,8.255195728324093e-05,8.268278682336588e-05,1.9225626212679516e-05,6.739122779708904e-06,2.895018521105515e-06,Unknown
0.23209615000000028,3.632154667791733e-05,8.248248334929349e-05,8.266038616730446e-05,1.9280137418786597e-05,6.701020211025845e-06,2.879659342538769e-06,Unknown
0.23261538000000037,3.633230159287398e-05,8.239211105716392e-05,8.26660288588206e-05,1.9339987166370148e-05,6.651463518854587e-06,2.86286578818784e-06,Unknown
0.2331346200000013,3.633595640642924e-05,8.227949850181512e-05,8.271236903880006e-05,1.940424128659466e-05,6.570778918984294e-06,2.845272591385251e-06,Unknown
0.23365385000000138,3.633563031403325e-05,8.214658793032664e-05,8.278666562477455e-05,1.9467755100778717e-05,6.471058570664195e-06,2.826843027550432e-06,Unknown
0.23417308000000148,3.633509160013873e-05,8.199561299161342e-05,8.28540973325404e-05,1.9520345362024836e-05,6.390982615465314e-06,2.807055125480932e-06,Unknown
0.23469231000000157,3.6335668646752445e-05,8.182843562273869e-05,8.288417637402425e-05,1.956670749973598e-05,6.348750193773543e-06,2.785273448991657e-06,Unknown
0.23521154000000166,3.633735925524632e-05,8.164709816907195e-05,8.287594383860495e-05,1.9627933112876704e-05,6.332837429715936e-06,2.7611320062383288e-06,Unknown
0.23573077000000175,3.634169764199107e-05,8.145351411253189e-05,8.285177285033134e-05,1.9708345976889053e-05,6.329678323192454e-06,2.735422543836924e-06,Unknown
0.23625000000000007,3.635241831192426e-05,8.124799952900677e-05,8.283009085256129e-05,1.9792627958098223e-05,6.330639569907411e-06,2.709738778695095e-06,Unknown
0.23676923000000016,3.637095301361624e-05,8.102878646128311e-05,8.281322183325484e-05,1.987100576386395e-05,6.330558738927116e-06,2.6844330534574524e-06,Unknown
0.23728846000000026,3.639429806127164e-05,8.079460321066935e-05,8.279474065906253e-05,1.994440103415677e-05,6.321891888833267e-06,2.657769899480563e-06,Unknown
0.23780769000000035,3.642175556153205e-05,8.054805884580566e-05,8.277109145223855e-05,2.001662612652664e-05,6.297568920052029e-06,2.6274028146573995e-06,Unknown
0.23832692000000044,3.646074001229068e-05,8.029430606846436e-05,8.274817634521102e-05,2.00886346275156e-05,6.264283944616842e-06,2.5931264013302896e-06,Unknown
0.23884615000000053,3.652641224647369e-05,8.003601817241182e-05,8.273569154968929e-05,2.015813107761679e-05,6.23428568084912e-06,2.558850265896991e-06,Unknown
0.23936538000000063,3.6629475086521465e-05,7.977244799034904e-05,8.273679051974838e-05,2.0223586073006863e-05,6.2118693215483655e-06,2.529993055340212e-06,Unknown
0.23988462000000155,3.675293307146653e-05,7.950350865803171e-05,8.275162043805218e-05,2.0285550614612447e-05,6.194692902134464e-06,2.5081805846537835e-06,Unknown
0.24040385000000164,3.685724672018757e-05,7.923290655064016e-05,8.279098940617716e-05,2.034406748695764e-05,6.177999952144917e-06,2.4907414399652087e-06,Stood
0.24092308000000173,3.691978528259893e-05,7.896692916941666e-05,8.288275157074915e-05,2.039738349997019e-05,6.153928054155483e-06,2.4745551910646347e-06,Stood
0.24144231000000183,3.694876062707302e-05,7.871147880014952e-05,8.305113521466833e-05,2.0441538357815724e-05,6.109359690133131e-06,2.458619440986482e-06,Stood
0.24196154000000014,3.696084025870609e-05,7.847101215682562e-05,8.326695784471602e-05,2.0469819266072544e-05,6.033418153502187e-06,2.445238735579204e-06,Stood
0.24248077000000023,3.696325918567197e-05,7.824907948702666e-05,8.344529223970909e-05,2.0476437570495657e-05,5.942880364423093e-06,2.4394182866244267e-06,Stood
0.24300000000000033,3.695696749251224e-05,7.804911292757578e-05,8.352861897717886e-05,2.04607847802247e-05,5.876389034512375e-06,2.4438108841859867e-06,Stood
0.24351923000000042,3.69503236998017e-05,7.78762850688563e-05,8.3538489263808e-05,2.042773015823753e-05,5.8441817602257375e-06,2.455594542715732e-06,Stood
0.2440384600000005,3.696296901036487e-05,7.773939857858784e-05,8.352690403017555e-05,2.0387753263686997e-05,5.830807228024147e-06,2.4706489760739014e-06,Stood
0.2445576900000006,3.7014106496304303e-05,7.764791036173785e-05,8.351957287044453e-05,2.035238465676471e-05,5.834180761980174e-06,2.4870345815044594e-06,Stood
0.2450769200000007,3.70984075635689e-05,7.760432984899538e-05,8.351749689589167e-05,2.032543800878985e-05,5.851288440165135e-06,2.503850433785798e-06,Stood
0.2455961500000008,3.7183305518385045e-05,7.760126480997857e-05,8.351748277676246e-05,2.030297278270437e-05,5.864691097163101e-06,2.5201272630423725e-06,Stood
0.24611538000000088,3.724584562474634e-05,7.762669737002741e-05,8.351757203882144e-05,2.027917844599273e-05,5.8615283906408935e-06,2.534654199761824e-06,Stood
0.2466346200000018,3.729162357292267e-05,7.766876097966191e-05,8.35174705564848e-05,2.025051557892193e-05,5.837875997342936e-06,2.545728081381956e-06,Stood
0.24715385000000012,3.7335382118155606e-05,7.77138773426386e-05,8.351832089127385e-05,2.021807614261324e-05,5.796482697564735e-06,2.552420040311117e-06,Stood
0.2476730800000002,3.738179752438143e-05,7.77410241560649e-05,8.351880369046099e-05,2.0187048890615923e-05,5.743135771071688e-06,2.556777923108193e-06,Stood
0.2481923100000003,3.742448887997661e-05,7.771858704539101e-05,8.352117452655644e-05,2.0162700148966315e-05,5.694754321646767e-06,2.56127362262664e-06,Stood
0.2487115400000004,3.74572818570335e-05,7.760914394880284e-05,8.352819761350036e-05,2.014659705631711e-05,5.684610622026594e-06,2.5626124303398587e-06,Stood
0.2492307700000005,3.7480819714963415e-05,7.737857175635373e-05,8.353247390664235e-05,2.013711502822271e-05,5.707396727768074e-06,2.553567413917245e-06,Stood
0.24975000000000058,3.7497945317098014e-05,7.700281801546562e-05,8.354050047629649e-05,2.013187626704285e-05,5.7063575583046e-06,2.532304857286389e-06,Stood
0.2502692300000007,3.750869576628523e-05,7.647307402832496e-05,8.352832573090682e-05,2.013032552100209e-05,5.658552616376354e-06,2.504866492255406e-06,Stood
0.25078846000000077,3.7512473521487946e-05,7.579714425391226e-05,8.337086401706949e-05,2.0135689482484364e-05,5.599660828426107e-06,2.478926946301941e-06,Stood
0.25130769000000086,3.751192378492608e-05,7.498545276658375e-05,8.29748698951071e-05,2.0154249444706343e-05,5.558701725697367e-06,2.4580927355730443e-06,Stood
0.25182692000000095,3.750759479515037e-05,7.402524149209775e-05,8.239663420637894e-05,2.0192477983873936e-05,5.53040115477313e-06,2.4410804540178697e-06,Stood
0.25234615000000105,3.749349749902551e-05,7.287906021508786e-05,8.17336916727985e-05,2.0253993005985525e-05,5.498271864429472e-06,2.42521322037916e-06,Stood
0.25286538000000114,3.7460934137247065e-05,7.154062430408175e-05,8.106378920798681e-05,2.0336369630209205e-05,5.4489512282500055e-06,2.4102019037960217e-06,Stood
0.2533846200000003,3.739856392530508e-05,7.011516813695281e-05,8.053927406788233e-05,2.0430204051748757e-05,5.3817652797816e-06,2.3983903725430087e-06,Stood
0.2539038500000004,3.730057197286745e-05,6.88043088593982e-05,8.034857874971727e-05,2.052457909968482e-05,5.30964941671863e-06,2.3920633888057622e-06,Stood
0.25442308000000047,3.717684908687975e-05,6.7751450305206e-05,8.036440984974852e-05,2.0613443592587512e-05,5.244762867764523e-06,2.390349800056031e-06,Stood
0.25494231000000056,3.703766747851645e-05,6.692956016623485e-05,8.003518059501936e-05,2.069540355911449e-05,5.193280498213954e-06,2.389541129688978e-06,Stood
0.25546154000000065,3.687553529922684e-05,6.619621011619993e-05,7.898261666243459e-05,2.0771405049370528e-05,5.160246778931264e-06,2.3878180376364986e-06,Stood
0.25598077000000075,3.667172529179641e-05,6.539574998048125e-05,7.744888032088239e-05,2.084403720711194e-05,5.146503014025106e-06,2.387165159834102e-06,Stood
0.25650000000000084,3.64289941785763e-05,6.44219755762401e-05,7.585541264091266e-05,2.0913458488355905e-05,5.144459577326603e-06,2.389083159475738e-06,Stood
0.25701923000000093,3.620986709440889e-05,6.325877200022293e-05,7.424445931984022e-05,2.0975130736711887e-05,5.14489849939631e-06,2.392263475363408e-06,Stood
0.257538460000001,3.610262255486189e-05,6.199050849718649e-05,7.232294520161665e-05,2.1025020953744625e-05,5.14141178280968e-06,2.395070648662814e-06,Stood
0.2580576900000011,3.611475042816081e-05,6.076374611182397e-05,6.98470180037788e-05,2.106123900557957e-05,5.126738654226633e-06,2.397279862613076e-06,Stood
0.2585769200000012,3.615853030449438e-05,5.971072365222372e-05,6.703705544913373e-05,2.108566863814089e-05,5.097186531361611e-06,2.399554615486293e-06,Stood
0.2590961500000013,3.616813360064062e-05,5.888654137421192e-05,6.456109719578608e-05,2.110598202438164e-05,5.064183462602167e-06,2.402753116208384e-06,Stood
0.2596153800000014,3.615282230677951e-05,5.827098502753608e-05,6.293746929772852e-05,2.112583892188757e-05,5.043102248892257e-06,2.407714421362158e-06,Stood
0.26013462000000054,3.613205791561358e-05,5.781296200404254e-05,6.21640741798144e-05,2.114271021902305e-05,5.03345344367288e-06,2.414760478363771e-06,Stood
0.26065385000000063,3.609518468991085e-05,5.746539837670296e-05,6.197036391801775e-05,2.1156375606025536e-05,5.025717036613124e-06,2.4235420268277777e-06,Stood
0.2611730800000007,3.602355059595671e-05,5.719934899491646e-05,6.212817248775974e-05,2.1167247553247475e-05,5.009917809671191e-06,2.4332416012611605e-06,Stood
0.2616923100000008,3.593286360194201e-05,5.7009013702516114e-05,6.24805171119214e-05,2.1174007886219144e-05,4.978810021597338e-06,2.4420531447141806e-06,Stood
0.2622115400000009,3.5878991708074274e-05,5.690777336168229e-05,6.285771765851402e-05,2.117833225861634e-05,4.94097440395137e-06,2.447505670781171e-06,Stood
0.262730770000001,3.5897540866817966e-05,5.690455591055021e-05,6.309305832033504e-05,2.118575130331485e-05,4.913740282884798e-06,2.4489922478744287e-06,Stood
0.2632500000000011,3.597168208153121e-05,5.697077649553936e-05,6.315036441171753e-05,2.1200288058478343e-05,4.897588292174878e-06,2.44891060017368e-06,Stood
0.2637692300000012,3.606392814204765e-05,5.703183501595006e-05,6.314997297768551e-05,2.1219519914771037e-05,4.881086229633866e-06,2.449545945886051e-06,Stood
0.2642884600000013,3.6139246268254034e-05,5.700427282587596e-05,6.31923136045907e-05,2.123362680779348e-05,4.856847737822822e-06,2.450439579770929e-06,Stood
0.2648076900000014,3.6168716432866696e-05,5.68604272796801e-05,6.32440043168553e-05,2.1232341534598108e-05,4.8180530103000285e-06,2.450113833124218e-06,Stood
0.26532692000000146,3.614014746707897e-05,5.665218233776667e-05,6.326337093211871e-05,2.121402531520049e-05,4.76669593818641e-06,2.448256506789312e-06,Stood
0.26584615000000156,3.606825360668296e-05,5.644999858075663e-05,6.331088878072877e-05,2.118498478200895e-05,4.720022994451839e-06,2.4455578382802973e-06,Stood
0.26636538000000165,3.598351544135867e-05,5.627182586079088e-05,6.343520667349486e-05,2.1154161539655663e-05,4.689252900053826e-06,2.443218566035804e-06,Stood
0.2668846200000008,3.5907591993079415e-05,5.608275649444989e-05,6.352970894066504e-05,2.1128282917436997e-05,4.668708585308692e-06,2.442872832074542e-06,Stood
0.2674038500000009,3.584607978660287e-05,5.5834373617643314e-05,6.342502351045264e-05,2.1106580084912723e-05,4.647115854298911e-06,2.4463044736597377e-06,Stood
0.267923080000001,3.580131152197607e-05,5.549392985750864e-05,6.307975789906557e-05,2.108045151491456e-05,4.616741110179193e-06,2.4558231324893376e-06,Stood
0.26844231000000107,3.578008877963097e-05,5.505144007967415e-05,6.255965588920418e-05,2.1043550775952483e-05,4.582328546122951e-06,2.475440119332025e-06,Stood
0.26896154000000116,3.5783264120490865e-05,5.451121918929087e-05,6.18941841733601e-05,2.100191462650167e-05,4.556405681609292e-06,2.510264374537441e-06,Stood
0.26948077000000126,3.579157009252304e-05,5.388340923182773e-05,6.10560749986126e-05,2.096675969852452e-05,4.539656124707151e-06,2.5613781061348897e-06,Stood
0.27000000000000135,3.57776872102088e-05,5.31806279321134e-05,6.00593161300135e-05,2.094233748587305e-05,4.5243398729504775e-06,2.620861043159271e-06,Stood
0.27051923000000144,3.573469143262925e-05,5.2414106360329415e-05,5.9031418414214725e-05,2.092529340575089e-05,4.503665406271763e-06,2.6769439654769883e-06,Stood
0.27103846000000154,3.5679133594709414e-05,5.1589325878313744e-05,5.814580997959055e-05,2.090910020372808e-05,4.477481538487377e-06,2.7244587659299403e-06,Stood
0.27155769000000163,3.563411749858107e-05,5.071058518041583e-05,5.748233366664479e-05,2.08898588325216e-05,4.45947742259148e-06,2.76632306749242e-06,Stood
0.2720769200000017,3.561356232597124e-05,4.979438938506804e-05,5.699712230491122e-05,2.0868961381540465e-05,4.457984269416734e-06,2.8073908826393195e-06,Stood
0.2725961500000018,3.5613931876340625e-05,4.886987686192652e-05,5.660584790177277e-05,2.085157968378158e-05,4.462425217030142e-06,2.849714897064353e-06,Stood
0.27311538000000013,3.562051581297478e-05,4.79525778709855e-05,5.625215828529347e-05,2.084210827259027e-05,4.463163417622079e-06,2.8922178587137114e-06,Stood
0.27363462000000105,3.561699235670386e-05,4.702099545759448e-05,5.592063445735884e-05,2.083899672589246e-05,4.463103270882864e-06,2.932269888343834e-06,Stood
0.27415385000000114,3.558488358269332e-05,4.603327292407769e-05,5.5618006971277344e-05,2.083905413801228e-05,4.464366606549111e-06,2.965027114885602e-06,Stood
0.27467308000000124,3.550228890209876e-05,4.497108012636639e-05,5.534933883936636e-05,2.084260636289142e-05,4.46482195460374e-06,2.983572793298454e-06,Stood
0.27519231000000133,3.5361446653163486e-05,4.385813096729918e-05,5.5113049187140674e-05,2.084971833622456e-05,4.4633574443033645e-06,2.986331020773906e-06,Stood
0.2757115400000014,3.5190989986136085e-05,4.273100063782917e-05,5.49102929607025e-05,2.0858272762595756e-05,4.461090333929742e-06,2.983187945698574e-06,Stood
0.2762307700000015,3.502661456568043e-05,4.1614032414040925e-05,5.474697112278347e-05,2.0866948376734207e-05,4.460947112466004e-06,2.9867335937715665e-06,Stood
0.2767500000000016,3.48516710108754e-05,4.053872966446401e-05,5.464298107508862e-05,2.087642320294413e-05,4.462594070005082e-06,3.0010711521214123e-06,Stood
0.2772692300000017,3.461190992336143e-05,3.956089353475149e-05,5.467084778592132e-05,2.0888735771274752e-05,4.464611395331798e-06,3.023551815142762e-06,Stood
0.2777884600000018,3.427903036130817e-05,3.87318148179426e-05,5.496145847322663e-05,2.0906967108797524e-05,4.463325121563807e-06,3.050360466961242e-06,Stood
0.2783076900000001,3.3856478773757675e-05,3.806547720077493e-05,5.564160403856836e-05,2.093238905576303e-05,4.457211560326217e-06,3.0777244813125462e-06,Stood
0.2788269200000002,3.335813603553762e-05,3.754923059220096e-05,5.677608255740111e-05,2.0961456377682327e-05,4.454969425946474e-06,3.1023085847618644e-06,Stood
0.2793461500000003,3.282305689360066e-05,3.7172550772933496e-05,5.830887054683161e-05,2.09896744068855e-05,4.452313581615549e-06,3.1227376992476354e-06,Stood
0.2798653800000004,3.231770009121256e-05,3.693144210826792e-05,5.99544566588894e-05,2.101467151451396e-05,4.422881224383063e-06,3.1399816322323296e-06,Stood
0.2803846200000013,3.189866861517003e-05,3.6812132091052607e-05,6.12101966501916e-05,2.1032123293566587e-05,4.361021655132986e-06,3.1561026473619403e-06,Stood
0.2809038500000014,3.158805681415867e-05,3.678327151922529e-05,6.171869258085468e-05,2.103403570340378e-05,4.308454932177268e-06,3.172632838061309e-06,Stood
0.2814230800000015,3.137098371524487e-05,3.680909947302009e-05,6.171818419778911e-05,2.1015759775092105e-05,4.315242906583766e-06,3.1893074087864856e-06,Stood
0.2819423100000016,3.121065571024401e-05,3.686701816735864e-05,6.195778376601735e-05,2.098194407038751e-05,4.373459161497818e-06,3.2043038887635067e-06,Stood
0.2824615400000017,3.108748094173522e-05,3.6945552925258896e-05,6.304972054988805e-05,2.093943486919322e-05,4.424173424882104e-06,3.2160215527801195e-06,Stood
0.28298077000000177,3.1006803346473864e-05,3.702579627309148e-05,6.502043297805777e-05,2.088800328161117e-05,4.438675661592322e-06,3.224190703650442e-06,Stood
0.2835000000000001,3.0969010391978586e-05,3.7063465308681045e-05,6.743062576618336e-05,2.0824201269138135e-05,4.437906053528512e-06,3.2294467049553447e-06,Stood
0.2840192300000002,3.0964036198788884e-05,3.699418094727857e-05,6.96784425181212e-05,2.0753935441605062e-05,4.433084776955916e-06,3.232720122801621e-06,Stood
0.28453846000000027,3.097897652565986e-05,3.6770576864053327e-05,7.127507776630387e-05,2.070368655034897e-05,4.408491363769783e-06,3.2351508215127427e-06,Stood
0.28505769000000036,3.099766656760017e-05,3.638680836679623e-05,7.208843350357118e-05,2.070599974031565e-05,4.366621139263494e-06,3.2381229977857893e-06,Stood
0.28557692000000046,3.100602482776931e-05,3.58646732617006e-05,7.233750925494709e-05,2.075533074022393e-05,4.333068522319259e-06,3.243127611239413e-06,Stood
0.28609615000000055,3.0993569206763835e-05,3.5234525266535035e-05,7.231765514509648e-05,2.0807422261357515e-05,4.318305846044989e-06,3.250708532734137e-06,Stood
0.28661538000000064,3.0949784420241495e-05,3.4531474339318724e-05,7.22002404223385e-05,2.083620676417799e-05,4.31393834977728e-06,3.2585416113394007e-06,Stood
0.28713462000000156,3.0871037125909385e-05,3.379519518310199e-05,7.204107893301264e-05,2.084989773854868e-05,4.31287516933298e-06,3.2621471612922297e-06,Stood
0.28765385000000165,3.0768695844150544e-05,3.306312234034028e-05,7.18506626905912e-05,2.0860240312168843e-05,4.313931360061772e-06,3.2592468914681297e-06,Stood
0.28817308000000175,3.065598952171191e-05,3.236113367759652e-05,7.163540898503808e-05,2.0867885963754517e-05,4.31852127243044e-06,3.251416174441169e-06,Stood
0.28869231000000006,3.053753122924233e-05,3.170405366153739e-05,7.140935497546556e-05,2.085820640561168e-05,4.326672305448012e-06,3.241316434914822e-06,Stood
0.28921154000000016,3.0424728174008896e-05,3.111222683881072e-05,7.118546254549747e-05,2.0819602643014693e-05,4.334983916667371e-06,3.2318636924759863e-06,Stood
0.28973077000000025,3.033874725272164e-05,3.061582184131931e-05,7.09623611835272e-05,2.078028552855305e-05,4.339005341357587e-06,3.225593042265537e-06,Stood
0.29025000000000034,3.028617068694985e-05,3.023414275739789e-05,7.07266721058229e-05,2.07722190499442e-05,4.332906482811417e-06,3.220136372974692e-06,Stood
0.29076923000000043,3.0251473782220564e-05,2.9963497226210025e-05,7.047057346108883e-05,2.076606439087965e-05,4.316627429297967e-06,3.20980078928014e-06,Stood
0.2912884600000005,3.0216315969148588e-05,2.9780358441505365e-05,7.020254316713199e-05,2.0714386785272832e-05,4.307262452828149e-06,3.194609915996952e-06,Stood
0.2918076900000006,3.017112999041009e-05,2.9656119283633547e-05,6.993797919909403e-05,2.062287402692586e-05,4.3103526978564495e-06,3.1799221220601e-06,Stood
0.2923269200000007,3.0123467792900624e-05,2.9574549848166582e-05,6.968413389068126e-05,2.0526821876101745e-05,4.3088105430997694e-06,3.168019425952697e-06,Stood
0.2928461500000008,3.009193468646264e-05,2.952646095962176e-05,6.943830952784199e-05,2.043996609123668e-05,4.301199134677382e-06,3.157471315254948e-06,Stood
0.2933653800000009,3.007927699239031e-05,2.9500769586861115e-05,6.920067827635057e-05,2.0351869454022863e-05,4.297540479882042e-06,3.147445140302116e-06,Stood
0.2938846200000018,3.006758675111681e-05,2.948937512255146e-05,6.89840823782785e-05,2.025093663901694e-05,4.298619862328419e-06,3.138372568845313e-06,Stood
0.29440385000000013,3.0040371857965163e-05,2.948766126038972e-05,6.88046750058546e-05,2.0140881417222098e-05,4.301154149078327e-06,3.1308438958969264e-06,Stood
0.2949230800000002,3.0002617610746188e-05,2.949080647520948e-05,6.866797109658182e-05,2.0038656959017423e-05,4.30340960758972e-06,3.125182319691526e-06,Stood
0.2954423100000003,2.99692216175493e-05,2.949547323087939e-05,6.857055801766215e-05,1.995696364828829e-05,4.30489678252676e-06,3.1212935694246337e-06,Stood
0.2959615400000004,2.993983697866517e-05,2.950344876597397e-05,6.85082560241694e-05,1.98904763400572e-05,4.304418944299993e-06,3.11880462681806e-06,Stood
0.2964807700000005,2.989539781691655e-05,2.951861004928612e-05,6.847616446742672e-05,1.982151558599194e-05,4.30202549844588e-06,3.117436370011372e-06,Stood
0.2970000000000006,2.9812413162019644e-05,2.9539498064125712e-05,6.846559065052235e-05,1.974250282300845e-05,4.298910648512873e-06,3.117123635730017e-06,Stood
0.2975192300000007,2.9692477500195057e-05,2.9559728559113757e-05,6.84678869201251e-05,1.966634625953255e-05,4.295288779397398e-06,3.1177896991312707e-06,Stood
0.2980384600000008,2.9574875857604127e-05,2.9575245678582493e-05,6.847979523812194e-05,1.961019527796192e-05,4.291925135129596e-06,3.119158467943892e-06,Stood
0.2985576900000009,2.949558787439494e-05,2.958601604232717e-05,6.850178721591088e-05,1.9578384934050067e-05,4.290221722556187e-06,3.120863357919758e-06,Stood
0.29907692000000097,2.9451556937440996e-05,2.9592158438370517e-05,6.852998370454917e-05,1.9563736365727453e-05,4.290061945379091e-06,3.122639708422679e-06,Stood
0.29959615000000106,2.9422005334498787e-05,2.9592654316137825e-05,6.854953835933344e-05,1.955758904346747e-05,4.289673562746252e-06,3.124320985411472e-06,Stood
0.30011538000000115,2.9396088802591617e-05,2.958615396907173e-05,6.85436700272727e-05,1.9555152728695805e-05,4.287560725554474e-06,3.125712090690524e-06,Stood
0.3006346200000003,2.9375770275659584e-05,2.957089033993334e-05,6.850997855697845e-05,1.955484892506908e-05,4.283448149526693e-06,3.1265633316621755e-06,Stood
0.3011538500000004,2.936910521959372e-05,2.9545125633883385e-05,6.845809536809919e-05,1.955524048022351e-05,4.2798121708029245e-06,3.1266788709277093e-06,Stood
0.3016730800000005,2.9374941975813358e-05,2.950872077167733e-05,6.839295399371513e-05,1.9551331635896306e-05,4.279581765535539e-06,3.126081440333391e-06,Stood
0.3021923100000006,2.93858181039209e-05,2.946522787865844e-05,6.830725500189537e-05,1.953398810986872e-05,4.27798167841651e-06,3.125023059511349e-06,Stood
0.30271154000000067,2.94022650772615e-05,2.9422562684910737e-05,6.818998377780063e-05,1.9492526921074565e-05,4.272544071083152e-06,3.123634809651753e-06,Stood
0.30323077000000076,2.942650492707205e-05,2.9389815353700927e-05,6.804140308458076e-05,1.94177792211671e-05,4.272201349658513e-06,3.1213314355307503e-06,Stood
0.30375000000000085,2.945685066178857e-05,2.937749281639424e-05,6.787549915706442e-05,1.931594768295572e-05,4.277861430943873e-06,3.116755922155508e-06,Stood
0.30426923000000095,2.9480456285333924e-05,2.9405302294148776e-05,6.770487174452643e-05,1.9219885234617336e-05,4.281604518803541e-06,3.108736065693033e-06,Stood
0.30478846000000104,2.947810229166201e-05,2.9491708129622973e-05,6.752888623101023e-05,1.915762341427646e-05,4.28322094489357e-06,3.09711291393109e-06,Stood
0.30530769000000113,2.945479049670844e-05,2.9621362238077136e-05,6.73376106737492e-05,1.911811178154149e-05,4.286817768138379e-06,3.082733010990597e-06,Stood
0.3058269200000012,2.9435373331337065e-05,2.97462474655314e-05,6.71233733537253e-05,1.907399930031029e-05,4.293288270431455e-06,3.0669624981150543e-06,Stood
0.3063461500000013,2.943206964507621e-05,2.9826651357740628e-05,6.688952045985742e-05,1.9013944224937827e-05,4.297885422301802e-06,3.050851444065166e-06,Stood
0.3068653800000014,2.9443224689188963e-05,2.9855682418497173e-05,6.664900045948856e-05,1.8951677765398847e-05,4.296930760357285e-06,3.034858954073764e-06,Stood
0.30738462000000055,2.94658006284143e-05,2.985417356854914e-05,6.641343171213852e-05,1.8917294914037214e-05,4.294825613899121e-06,3.019420248204953e-06,Stood
0.30790385000000065,2.949544825290937e-05,2.984849610640635e-05,6.618520814376762e-05,1.8917159594525392e-05,4.294895597979768e-06,3.0049634859163664e-06,Stood
0.30842308000000074,2.9523363035369543e-05,2.984913312311137e-05,6.596042597394158e-05,1.892682575370984e-05,4.295608562703773e-06,2.9914460846263137e-06,Stood
0.30894231000000083,2.953774948788784e-05,2.9852606744381478e-05,6.573493388289166e-05,1.893552936827009e-05,4.295606462600396e-06,2.97840323122946e-06,Stood
0.3094615400000009,2.953066155762436e-05,2.9854442031825333e-05,6.550829358272384e-05,1.8940750207392805e-05,4.294862776418972e-06,2.9655129354175824e-06,Stood
0.309980770000001,2.9504996390319516e-05,2.985187733948961e-05,6.528909854417631e-05,1.8921773792249535e-05,4.2941461725543664e-06,2.9530835353812523e-06,Stood
0.3105000000000011,2.94695305986558e-05,2.983920949568801e-05,6.509520562406815e-05,1.887258043453089e-05,4.2923564523717625e-06,2.941884665238364e-06,Stood
0.3110192300000012,2.9424666880717564e-05,2.9805028656091297e-05,6.494068473197563e-05,1.881944819774248e-05,4.286302705145409e-06,2.932716803578366e-06,Stood
0.3115384600000013,2.936024995860441e-05,2.973840313819039e-05,6.482515350732503e-05,1.878389028659758e-05,4.272517762275897e-06,2.92628917927832e-06,Stood
0.3120576900000014,2.925512343110614e-05,2.964214517095921e-05,6.47442576109587e-05,1.8763265679621887e-05,4.252722664884162e-06,2.923317266593708e-06,Stood
0.3125769200000015,2.907342361993711e-05,2.9536094407113108e-05,6.47013256449475e-05,1.874591639829478e-05,4.234201263889896e-06,2.924621229830245e-06,Stood
0.31309615000000157,2.881044070236338e-05,2.94431666121881e-05,6.46938087777573e-05,1.8724179736842667e-05,4.221864453572816e-06,2.9306086040035485e-06,Stood
0.31361538000000166,2.853744187951066e-05,2.937597574267155e-05,6.470211925981575e-05,1.8695466109988768e-05,4.215872428299476e-06,2.9395282028134765e-06,Stood
0.3141346200000008,2.8332691275411224e-05,2.933770353658431e-05,6.470831679140934e-05,1.8658742893279357e-05,4.210197935798645e-06,2.9468271545172067e-06,Stood
0.3146538500000009,2.820422359671669e-05,2.932491229305985e-05,6.470945369252235e-05,1.8615977404649543e-05,4.195908856722514e-06,2.948977352200681e-06,Stood
0.315173080000001,2.812075406303109e-05,2.932466914032151e-05,6.470762645529046e-05,1.8574891725730507e-05,4.172122131412246e-06,2.9475060268488585e-06,Stood
0.3156923100000011,2.806337378076069e-05,2.9318449126940316e-05,6.470432725387037e-05,1.8541586195836776e-05,4.146491010684128e-06,2.946234765377269e-06,Stood
0.3162115400000012,2.803241636894461e-05,2.929057348144637e-05,6.470017153613945e-05,1.851513097502928e-05,4.124662523458762e-06,2.946284911385928e-06,Stood
0.31673077000000127,2.8024940185593392e-05,2.9230746070138008e-05,6.469252977387799e-05,1.849151087865065e-05,4.106612372260087e-06,2.9465817873758954e-06,Stood
0.31725000000000136,2.802501432740073e-05,2.9134932382772355e-05,6.46788775246637e-05,1.846791813938046e-05,4.091120206370198e-06,2.9466195474534567e-06,Stood
0.31776923000000146,2.802530872192601e-05,2.9007195722860257e-05,6.46597899175132e-05,1.8449740493259615e-05,4.076629752526408e-06,2.9466248632156533e-06,Stood
0.31828846000000155,2.8030929942325745e-05,2.885871405668448e-05,6.463669948274608e-05,1.844658923650599e-05,4.059950343906583e-06,2.946701995535831e-06,Stood
0.31880769000000164,2.803623566219286e-05,2.8702199303725305e-05,6.46091111734397e-05,1.845330918917011e-05,4.039362959951905e-06,2.94671954315602e-06,Stood
0.31932692000000173,2.8027374493328632e-05,2.8545146121496307e-05,6.457332103370135e-05,1.845637657688232e-05,4.017877690951305e-06,2.946517215716954e-06,Stood
0.31984615000000005,2.8005071623123712e-05,2.8390354451175477e-05,6.452328447030791e-05,1.845510522988621e-05,4.001167048903531e-06,2.945991171686604e-06,Stood
0.32036538000000014,2.7982287188061635e-05,2.824507201678284e-05,6.4450682821038e-05,1.845633967515721e-05,3.992632351945352e-06,2.9450667642295617e-06,Stood
0.32088462000000106,2.7965358837844405e-05,2.8123610000372763e-05,6.434759044777422e-05,1.8460889964898176e-05,3.990459474337537e-06,2.943651894501832e-06,Stood
0.32140385000000116,2.7949860182679947e-05,2.8033965150848027e-05,6.421801882043194e-05,1.845724750981657e-05,3.990292744911875e-06,2.9416114391165462e-06,Stood
0.32192308000000125,2.7932387709026867e-05,2.796848206735108e-05,6.408477490841403e-05,1.84152357088094e-05,3.99026591000221e-06,2.938872988936482e-06,Stood
0.32244231000000134,2.791781520570472e-05,2.791297458212141e-05,6.397188996118395e-05,1.8302693642517538e-05,3.990312873453828e-06,2.9357142526734007e-06,Stood
0.32296154000000143,2.7911723381352392e-05,2.785958111041357e-05,6.3882559125051e-05,1.814145134353965e-05,3.990847087810794e-06,2.932941811811664e-06,Stood
0.3234807700000015,2.7912135067404465e-05,2.781100270723376e-05,6.380375109281673e-05,1.8007601799063824e-05,3.990446710595161e-06,2.931429086413219e-06,Stood
0.3240000000000016,2.790869448015724e-05,2.7771738994348227e-05,6.372451858763983e-05,1.7940375158174387e-05,3.986629143716381e-06,2.931244153069825e-06,Stood
0.3245192300000017,2.788436570825876e-05,2.773765699034716e-05,6.36446612842906e-05,1.791684814846587e-05,3.984815153855684e-06,2.931613097222313e-06,Stood
0.3250384600000018,2.7822114286335965e-05,2.7699293743459397e-05,6.356810945278196e-05,1.7908902720731152e-05,3.986501424497917e-06,2.931764206671002e-06,Stood
0.3255576900000001,2.771911220391387e-05,2.764981931449672e-05,6.349280009505489e-05,1.7906193646145025e-05,3.981914566051902e-06,2.931330232530107e-06,Stood
0.3260769200000002,2.75893543301395e-05,2.759099106723301e-05,6.341089388665108e-05,1.790645061508765e-05,3.971424465791127e-06,2.9301001834379004e-06,Stood
0.3265961500000003,2.7442611228832456e-05,2.753361104450524e-05,6.331596083677222e-05,1.790683008358089e-05,3.964458567455487e-06,2.9277421081278382e-06,Stood
0.3271153800000004,2.7266913885139608e-05,2.7487606424281897e-05,6.320926010499555e-05,1.7905902812368046e-05,3.96320398362386e-06,2.924254380732548e-06,Stood
0.3276346200000013,2.703625548082587e-05,2.7453634925714103e-05,6.310042554429583e-05,1.7905777852908057e-05,3.964049538451428e-06,2.920997220706319e-06,Stood
0.3281538500000014,2.6740732914457343e-05,2.7425482320539068e-05,6.300316360054547e-05,1.7907643392349177e-05,3.964643584305127e-06,2.9196816605517625e-06,Stood
0.3286730800000015,2.641057296867772e-05,2.7397061338459603e-05,6.292956981624443e-05,1.7909975386133848e-05,3.96341957770723e-06,2.919891794430627e-06,Stood
0.3291923100000016,2.609477204736221e-05,2.736868349414061e-05,6.288439511186108e-05,1.7909788237152752e-05,3.94899282675772e-06,2.91993432803061e-06,Stood
0.3297115400000017,2.5820207785690743e-05,2.7347427232202213e-05,6.286263204241978e-05,1.790770608232649e-05,3.905082719870433e-06,2.919456690958052e-06,Stood
0.3302307700000018,2.558391084461691e-05,2.7338367422659885e-05,6.285426513186916e-05,1.7907827723446594e-05,3.839722698173469e-06,2.9200474910763897e-06,Stood
0.3307500000000001,2.5372316549682097e-05,2.733914239659289e-05,6.285115861619513e-05,1.7913128406355e-05,3.785164929407165e-06,2.926235538257204e-06,Stood
0.3312692300000002,2.5176285898558917e-05,2.7344317802373933e-05,6.284915073096325e-05,1.792606962430521e-05,3.756316696423176e-06,2.9461195092209286e-06,Stood
0.3317884600000003,2.499152599937872e-05,2.7351021129226396e-05,6.284615851304611e-05,1.7941850814920985e-05,3.743604362091024e-06,2.9836663205549223e-06,Stood
0.3323076900000004,2.481534496695924e-05,2.7360449457679407e-05,6.284146314956131e-05,1.7928038792820754e-05,3.7392932345658906e-06,3.0268672614479e-06,Stood
0.33282692000000047,2.4647890266187786e-05,2.7374255305956103e-05,6.283676143287027e-05,1.7814196822847716e-05,3.737864169125669e-06,3.0554646132990603e-06,Stood
0.33334615000000056,2.449246870755349e-05,2.739054660342092e-05,6.283418221502485e-05,1.753134489815224e-05,3.734080624029689e-06,3.0626876399820988e-06,Stood
0.33386538000000066,2.4353891713601063e-05,2.740306261444665e-05,6.283354577463761e-05,1.7091874746927426e-05,3.718715815179448e-06,3.0573024995995437e-06,Stood
0.3343846200000016,2.4236177549605057e-05,2.740283831300962e-05,6.283353608396699e-05,1.661026775971216e-05,3.677522434029632e-06,3.049572964270183e-06,Stood
0.33490385000000167,2.413887153623386e-05,2.7382312658740145e-05,6.28333419354665e-05,1.621498991087793e-05,3.6323996139191514e-06,3.0449014585728664e-06,Stood
0.33542308000000176,2.4057907910491525e-05,2.734153489092498e-05,6.283233281665378e-05,1.5963607731962213e-05,3.6243024855588336e-06,3.045382475220644e-06,Stood
0.3359423100000001,2.3992043552782867e-05,2.728888115467979e-05,6.282912422010202e-05,1.584635843598341e-05,3.6392501125526216e-06,3.0519697178948805e-06,Stood
0.33646154000000017,2.3944143382703934e-05,2.7231124313901066e-05,6.282155813256333e-05,1.581782173691543e-05,3.6447651811782382e-06,3.065167617837509e-06,Stood
0.33698077000000026,2.391528184262671e-05,2.7165216472309372e-05,6.280847548495195e-05,1.5822737168724025e-05,3.642217229319744e-06,3.0847584142924663e-06,Stood
0.33750000000000036,2.3901782837165054e-05,2.708126762677733e-05,6.279058632185461e-05,1.582789928397785e-05,3.640896435634107e-06,3.109812180187628e-06,Stood
0.33801923000000045,2.389878678256057e-05,2.6972230536140964e-05,6.27686104453316e-05,1.58299738876453e-05,3.6429573057008695e-06,3.138140111619921e-06,Stood
0.33853846000000054,2.3903772466939817e-05,2.6841196381496184e-05,6.274164318903558e-05,1.5829968793401692e-05,3.645078914886287e-06,3.16598225599572e-06,Stood
0.33905769000000063,2.391470711464995e-05,2.669825554520131e-05,6.270869843698346e-05,1.581115755293691e-05,3.645572664433876e-06,3.1894177544356783e-06,Stood
0.3395769200000007,2.392534955768225e-05,2.655137690319513e-05,6.267042984483614e-05,1.5751493133604056e-05,3.650607045042378e-06,3.206168694333322e-06,Stood
0.3400961500000008,2.392669414199205e-05,2.640348960477751e-05,6.262736582940986e-05,1.565168195301208e-05,3.662730309287184e-06,3.2165224004465142e-06,Stood
0.3406153800000009,2.391580511100776e-05,2.625734875943125e-05,6.25783383587981e-05,1.5530754019879827e-05,3.673988911231585e-06,3.2237216168620794e-06,Stood
0.34113462000000006,2.389756012695152e-05,2.6119074997017357e-05,6.252318749234557e-05,1.5400504093705893e-05,3.678722701207981e-06,3.232292879640695e-06,Stood
0.34165385000000015,2.3876872393013454e-05,2.5995366736377568e-05,6.246689192955667e-05,1.5270075834450483e-05,3.681471636914692e-06,3.244104947376344e-06,Stood
0.34217308000000024,2.3854766440410252e-05,2.588882554228844e-05,6.241704936690052e-05,1.5179392468686588e-05,3.686751576863526e-06,3.257193263040589e-06,Stood
0.34269231000000033,2.382605983131893e-05,2.5795956300423336e-05,6.237511223146055e-05,1.5199118591881196e-05,3.6891553202164494e-06,3.26838727479023e-06,Stood
0.3432115400000004,2.377922048651133e-05,2.571215610656496e-05,6.233479305304757e-05,1.5340692526859445e-05,3.680777358644354e-06,3.2750950101094334e-06,Stood
0.3437307700000005,2.3709031467344727e-05,2.5641213922021167e-05,6.2288063657087e-05,1.5486434629347124e-05,3.664290537787917e-06,3.275617092169441e-06,Stood
0.3442500000000006,2.3618774604046795e-05,2.559263878635835e-05,6.222895563185959e-05,1.5516260392720266e-05,3.646341426238637e-06,3.2699552029223456e-06,Stood
0.3447692300000007,2.350814597167187e-05,2.556867014862928e-05,6.215912287744194e-05,1.544539246837811e-05,3.634398962168979e-06,3.2603747522891907e-06,Stood
0.3452884600000008,2.3379023916538977e-05,2.556258261446019e-05,6.208947069017517e-05,1.534988791915551e-05,3.633363602395944e-06,3.250285023994854e-06,Stood
0.3458076900000009,2.3233518814208875e-05,2.5566977425035544e-05,6.202566113674762e-05,1.527149627651491e-05,3.6311654451632376e-06,3.2422867989477808e-06,Stood
0.346326920000001,2.3061988622378645e-05,2.5577156857887714e-05,6.19603618748576e-05,1.5223456841928416e-05,3.618653227365075e-06,3.2374687034705607e-06,Stood
0.3468461500000011,2.2860008437444992e-05,2.5589502051022644e-05,6.188600803177488e-05,1.5206207590489876e-05,3.605184279917338e-06,3.236174450034669e-06,Stood
0.34736538000000117,2.2641237827314556e-05,2.5598770534551076e-05,6.180036878678275e-05,1.5216944938160584e-05,3.5996239974803917e-06,3.23874139452712e-06,Stood
0.3478846200000003,2.242509992146044e-05,2.5597022770242508e-05,6.170398463559006e-05,1.5242514327298034e-05,3.600735683916275e-06,3.245685084295044e-06,Stood
0.3484038500000004,2.2220143947542384e-05,2.557826903294859e-05,6.160328585373902e-05,1.5262058419945463e-05,3.604034541723872e-06,3.2574678629491667e-06,Stood
0.3489230800000005,2.2015064675840918e-05,2.5543239937172167e-05,6.150971139482617e-05,1.5269921208658576e-05,3.607510766495232e-06,3.273344051709265e-06,Stood
0.3494423100000006,2.17890137593788e-05,2.54987278964748e-05,6.143557246869991e-05,1.5271322806007012e-05,3.6120856825313447e-06,3.289914666400732e-06,Stood
0.3499615400000007,2.152898896766597e-05,2.5451987153539468e-05,6.139042183465981e-05,1.527041681031933e-05,3.619967129461873e-06,3.302924878716407e-06,Stood
0.3504807700000008,2.1236985703123783e-05,2.5404726866831965e-05,6.13740426571089e-05,1.52657183169684e-05,3.6301439753533103e-06,3.3115156470925355e-06,Stood
0.35100000000000087,2.0928181210155663e-05,2.535354076366085e-05,6.137320335314529e-05,1.524674977462257e-05,3.635740365910638e-06,3.3182062039142823e-06,Stood
0.35151923000000096,2.062029376285383e-05,2.5294521309226515e-05,6.137186415823961e-05,1.520709968707184e-05,3.6351506122540086e-06,3.325879288527032e-06,Stood
0.35203846000000105,2.032090878499615e-05,2.522498418284058e-05,6.136487960741764e-05,1.5150438506738766e-05,3.636507745706477e-06,3.3348415480126942e-06,Stood
0.35255769000000114,2.0028336957023775e-05,2.5139858370044457e-05,6.135906274738978e-05,1.5079876346750984e-05,3.641747996243723e-06,3.3405285093074886e-06,Stood
0.35307692000000124,1.974664314180284e-05,2.502960295358128e-05,6.136130804394481e-05,1.4996583383358387e-05,3.645017791819793e-06,3.339285213347601e-06,Stood
0.35359615000000133,1.949587641966412e-05,2.488855742728805e-05,6.136695502109428e-05,1.4905415754648096e-05,3.645493623087008e-06,3.334891158744112e-06,Stood
0.3541153800000014,1.929957286693672e-05,2.4727675319280472e-05,6.136663839579143e-05,1.4815292646456208e-05,3.6449329152133783e-06,3.331965606687638e-06,Stood
0.35463462000000057,1.9162606947554198e-05,2.4570654354427228e-05,6.135899962762324e-05,1.4733459556425044e-05,3.638166957210159e-06,3.3299231820594885e-06,Stood
0.35515385000000066,1.9069774609236783e-05,2.44334140846502e-05,6.134649379862178e-05,1.4659378008359394e-05,3.621260401141229e-06,3.3279162947000464e-06,Stood
0.35567308000000075,1.9002324135702076e-05,2.431589760049804e-05,6.132907762600104e-05,1.4583038584008832e-05,3.608102047316205e-06,3.3272241951914725e-06,Stood
0.35619231000000084,1.8947992716008718e-05,2.421356138215863e-05,6.130546368486909e-05,1.4491147675909428e-05,3.612724094088672e-06,3.328181556505418e-06,Stood
0.35671154000000094,1.8901940431080477e-05,2.412523630904897e-05,6.12731816863482e-05,1.4380657469013544e-05,3.621998275586478e-06,3.3298373921433607e-06,Stood
0.35723077000000103,1.886612726613202e-05,2.4048188320402252e-05,6.122776197721974e-05,1.4263988181286226e-05,3.619060752079474e-06,3.331253894341557e-06,Stood
0.3577500000000011,1.884907141846105e-05,2.397800810312613e-05,6.116337590117267e-05,1.415712715884011e-05,3.611882635135355e-06,3.3315573940210126e-06,Stood
0.3582692300000012,1.885677086749061e-05,2.391782275119607e-05,6.107628941395372e-05,1.4064981431105677e-05,3.616137458901333e-06,3.330590042453825e-06,Stood
0.3587884600000013,1.8872871763209e-05,2.38780674046896e-05,6.097339449730815e-05,1.3979650108644678e-05,3.6293827240470776e-06,3.330733463281969e-06,Stood
0.3593076900000014,1.887717666214909e-05,2.3863141519669168e-05,6.087840102609618e-05,1.3888195116307446e-05,3.640411909637085e-06,3.3351124751439305e-06,Stood
0.3598269200000015,1.8876566040033537e-05,2.386490612645624e-05,6.0818615665360143e-05,1.3780587842725406e-05,3.648104527485989e-06,3.342750548430514e-06,Stood
0.3603461500000016,1.888254730287381e-05,2.38705661329418e-05,6.0798867732104286e-05,1.3657783020229629e-05,3.65204958655523e-06,3.3497541171997333e-06,Stood
0.3608653800000017,1.8888858074351424e-05,2.3869918953374423e-05,6.0799101069882456e-05,1.35327004284723e-05,3.6492947085028113e-06,3.354188729435623e-06,Stood
0.3613846200000008,1.8883795162528977e-05,2.385618003205358e-05,6.079901907115569e-05,1.3417375765616325e-05,3.645601909299223e-06,3.3565690468935663e-06,Stood
0.3619038500000009,1.886559751376442e-05,2.382780441464468e-05,6.079370232801733e-05,1.3312108017756414e-05,3.6452597765601766e-06,3.358018714081903e-06,Stood
0.362423080000001,1.8841660824283072e-05,2.379069846896732e-05,6.078868164687949e-05,1.3209374509345082e-05,3.644408764921324e-06,3.3592350946851243e-06,Stood
0.3629423100000011,1.8810636432587076e-05,2.375271304146431e-05,6.0788771807551776e-05,1.310302505373682e-05,3.6413897130385377e-06,3.3602617164774164e-06,Stood
0.3634615400000012,1.8751191418928584e-05,2.371548834728555e-05,6.078966279272611e-05,1.299310180885182e-05,3.6380146867538422e-06,3.3608714194020087e-06,Stood
0.3639807700000013,1.8626741767033102e-05,2.3674238514999693e-05,6.078060349002284e-05,1.2884794324089298e-05,3.636416440925073e-06,3.3609111892372435e-06,Stood
0.3645000000000014,1.841086081353592e-05,2.362283188539535e-05,6.0756085278779066e-05,1.2781950022932476e-05,3.63941436000938e-06,3.3605079927462483e-06,Stood
0.36501923000000147,1.813220554844061e-05,2.3558058973022897e-05,6.07145252922813e-05,1.2680563513341504e-05,3.648015367761463e-06,3.360152735069543e-06,Stood
0.36553846000000156,1.7866941087103917e-05,2.3477885600280076e-05,6.064197162292662e-05,1.257127346928787e-05,3.65744742645332e-06,3.3601308366659075e-06,Stood
0.36605769000000166,1.7663205232964314e-05,2.3375621614227217e-05,6.050144426870833e-05,1.245225325900731e-05,3.6592989761299966e-06,3.359828927308198e-06,Stood
0.36657692000000175,1.7510844202035114e-05,2.324214863282668e-05,6.025822802457922e-05,1.2337722135584446e-05,3.648568927036069e-06,3.358143156254558e-06,Stood
0.36709615000000007,1.7381474550844806e-05,2.3076731553131648e-05,5.994800251435768e-05,1.224780808485496e-05,3.6342436631384873e-06,3.35453267741901e-06,Stood
0.36761538000000016,1.7262469243264503e-05,2.2891444533400756e-05,5.968388115974088e-05,1.219035916810824e-05,3.629945374247333e-06,3.3491519273353783e-06,Stood
0.3681346200000011,1.7153023463422513e-05,2.2704603180377138e-05,5.954510650464766e-05,1.2158671804005505e-05,3.630728677505725e-06,3.3421009273372545e-06,Stood
0.36865385000000117,1.703896967834413e-05,2.25325438950026e-05,5.950684230029404e-05,1.2143480651311458e-05,3.630390965411299e-06,3.3330862588741704e-06,Stood
0.36917308000000126,1.688198497241602e-05,2.238445310658805e-05,5.9504804065471673e-05,1.213727358396344e-05,3.629159181455392e-06,3.321984021600382e-06,Stood
0.36969231000000136,1.6637842635969992e-05,2.2259092563202174e-05,5.95062949403384e-05,1.213441117098046e-05,3.612570616653437e-06,3.309503297355645e-06,Stood
0.37021154000000145,1.6310335072731366e-05,2.2145055491737577e-05,5.950705056067235e-05,1.213381853863547e-05,3.5818324279468805e-06,3.2969329554337346e-06,Stood
0.37073077000000154,1.5970759967970157e-05,2.2026489518879817e-05,5.950788371063476e-05,1.213485795548023e-05,3.5651370885878445e-06,3.285236708300127e-06,Stood
0.37125000000000163,1.568326683334687e-05,2.1891078142918495e-05,5.9508912394217904e-05,1.2135419635418448e-05,3.5697026483140965e-06,3.274741545079604e-06,Stood
0.3717692300000017,1.5450809908679045e-05,2.1735817484540325e-05,5.951054203088507e-05,1.2135140259284128e-05,3.577702762145524e-06,3.2656759909134745e-06,Stood
0.3722884600000018,1.5246887007884204e-05,2.1567800415760105e-05,5.9513035901511735e-05,1.2134049680477884e-05,3.577950992479421e-06,3.258496967601383e-06,Stood
0.37280769000000014,1.5061587837883676e-05,2.1398554854983608e-05,5.9515185607378895e-05,1.213300365114253e-05,3.577922425219892e-06,3.2534595904327377e-06,Stood
0.37332692000000023,1.4910944175056694e-05,2.1237877205639168e-05,5.9513876972456125e-05,1.2133485196789097e-05,3.5636916995706096e-06,3.250163405074268e-06,Stood
0.3738461500000003,1.4807188792247508e-05,2.1095249467377285e-05,5.95064063903173e-05,1.21340164797921e-05,3.4799609253445465e-06,3.2477955806712026e-06,Stood
0.3743653800000004,1.4739664336230864e-05,2.0982185541173774e-05,5.949394869110149e-05,1.2132915451454529e-05,3.3254806133226675e-06,3.245828687664438e-06,Stood
0.37488462000000133,1.46939262675689e-05,2.0904774628200436e-05,5.948165504479152e-05,1.2130253487908018e-05,3.1886893905968824e-06,3.244480466633033e-06,Stood
0.3754038500000014,1.466805619576793e-05,2.085797630144444e-05,5.947394148622931e-05,1.212426875942934e-05,3.1288674870624968e-06,3.244142864876296e-06,Stood
0.3759230800000015,1.4663234106098798e-05,2.0831886499338013e-05,5.947067959008242e-05,1.2109954498114454e-05,3.1185379796065024e-06,3.244064958567678e-06,Stood
0.3764423100000016,1.4668990404125696e-05,2.08181570259572e-05,5.946868346937798e-05,1.2078277177077902e-05,3.118437233880565e-06,3.2427852082902005e-06,Stood
0.3769615400000017,1.467299895045072e-05,2.0811990142338197e-05,5.9466510965658825e-05,1.2016449617057518e-05,3.118003354124116e-06,3.2400974343609397e-06,Stood
0.3774807700000018,1.467413559235955e-05,2.081104522056668e-05,5.946488062005232e-05,1.1914172510945377e-05,3.116939269980215e-06,3.236975338866952e-06,Stood
0.3780000000000001,1.4671737048283133e-05,2.081284954377041e-05,5.946230037915635e-05,1.1773199366509349e-05,3.1141828920897118e-06,3.233850185311019e-06,Stood
0.3785192300000002,1.4667779888464135e-05,2.0814146976267712e-05,5.945469348579343e-05,1.160941108415436e-05,3.107835910759832e-06,3.230168429414297e-06,Stood
0.3790384600000003,1.4667650063882371e-05,2.0810938563261645e-05,5.943908644325967e-05,1.1440646408478448e-05,3.098091085802414e-06,3.2256371822392373e-06,Stood
0.3795576900000004,1.4669662468699922e-05,2.080039359186448e-05,5.94168060662993e-05,1.1273053720838352e-05,3.0888422241358597e-06,3.2215778758822743e-06,Stood
0.3800769200000005,1.467454507879591e-05,2.0780662002059688e-05,5.939107291996112e-05,1.1101980158339858e-05,3.0826985868828314e-06,3.2200478753428343e-06,Stood
0.3805961500000006,1.4684692924659892e-05,2.0748622893369946e-05,5.9362382828516336e-05,1.0923871708862302e-05,3.079547353059764e-06,3.220755158705063e-06,Stood
0.38111538000000067,1.4694752821138604e-05,2.070087814555402e-05,5.933017503831274e-05,1.0745592216379365e-05,3.0792716189308368e-06,3.220898542735494e-06,Stood
0.3816346200000016,1.4694925040043077e-05,2.0630674071610928e-05,5.929684455285748e-05,1.058127422116187e-05,3.08185029852241e-06,3.219071938678426e-06,Stood
0.3821538500000017,1.466772799210525e-05,2.051814274142124e-05,5.926800307611057e-05,1.0440007251364634e-05,3.08574291193376e-06,3.216466024274873e-06,Stood
0.3826730800000018,1.4587510523225177e-05,2.0325714830340356e-05,5.924663383748951e-05,1.0319707320279256e-05,3.086357679320437e-06,3.214391740177315e-06,Stood
0.3831923100000001,1.4461508264892018e-05,2.001732420702681e-05,5.922790180682833e-05,1.0213359546524662e-05,3.0795556912215533e-06,3.213138575838172e-06,Stood
0.3837115400000002,1.4361534710580543e-05,1.9600950026010424e-05,5.919874163300101e-05,1.01184403529253e-05,3.06962939730716e-06,3.212710045758729e-06,Stood
0.3842307700000003,1.4338601453010914e-05,1.913976461119858e-05,5.91326158307486e-05,1.0039637730327244e-05,3.065154889860429e-06,3.2133396238066274e-06,Stood
0.38475000000000037,1.4353482514601152e-05,1.869829009133156e-05,5.898795955001143e-05,9.981725030658022e-06,3.0654561488089007e-06,3.215269013980617e-06,Stood
0.38526923000000046,1.435587625784148e-05,1.829186832700325e-05,5.8720260292699104e-05,9.941119832553231e-06,3.065611658588403e-06,3.218232779184428e-06,Stood
0.38578846000000055,1.4338238550396818e-05,1.7898419546295417e-05,5.829010352311669e-05,9.907981923261735e-06,3.065811856482109e-06,3.221553508255666e-06,Stood
0.38630769000000065,1.430491156022355e-05,1.7500291281886162e-05,5.7672978407142346e-05,9.873776850998918e-06,3.066064166049806e-06,3.2250673925006216e-06,Stood
