Time,Rectus Femoris,Vastus Medialis,Vastus Lateralis,Bicep Femoris,Tibialis,Gastrocnemius Medialis,Activity
0.00025961500000004634,1.5799410507934346e-05,4.335523612079902e-06,7.338100736191322e-06,5.427803633941951e-06,4.12142945323496e-05,7.866629274150415e-07,Unknown
0.0007788460000002217,1.5803248376203723e-05,4.331318136680322e-06,7.356927725620309e-06,5.428836104115898e-06,4.121465628275511e-05,7.859105603533209e-07,Unknown
0.0012980770000003972,1.5805512424396442e-05,4.322802450298452e-06,7.377854003192617e-06,5.430161953256119e-06,4.121472037735794e-05,7.853852887997785e-07,Unknown
0.0018173079999996844,1.5805638741955028e-05,4.308821747199477e-06,7.400982987169606e-06,5.428778763501248e-06,4.121099056690981e-05,7.848308426113471e-07,Unknown
0.002336537999999777,1.5804009474934248e-05,4.292550651549269e-06,7.421238548583605e-06,5.424246003836439e-06,4.119260609397365e-05,7.84170903888638e-07,Unknown
0.0028557689999999525,1.580209159056988e-05,4.277311814925448e-06,7.4335178386300356e-06,5.420428221851782e-06,4.114409833900813e-05,7.834772534976899e-07,Unknown
0.003375000000000128,1.5801830984673084e-05,4.262730328934222e-06,7.439588746657582e-06,5.419621876349272e-06,4.1059107988948175e-05,7.827246178762729e-07,Unknown
0.0038942310000003033,1.5804733376471344e-05,4.2454564733047e-06,7.444296621635909e-06,5.419928865020516e-06,4.094831207142121e-05,7.818469609130435e-07,Unknown
0.0044134619999995905,1.5810620983964048e-05,4.224720823959246e-06,7.449157269063232e-06,5.418901766851283e-06,4.083168778964478e-05,7.810516650827488e-07,Unknown
0.004932691999999683,1.581651842392191e-05,4.20406698676995e-06,7.45278927042277e-06,5.415398286150893e-06,4.072639632370294e-05,7.809410165290981e-07,Unknown
0.005451922999999859,1.581890743494288e-05,4.187141811095549e-06,7.453800585630744e-06,5.409631189084379e-06,4.0639501951834056e-05,7.820408530934286e-07,Unknown
0.005971154000000034,1.5817011917674666e-05,4.186874902995572e-06,7.454051917616676e-06,5.403729865144672e-06,4.056654618668051e-05,7.842193552353837e-07,Unknown
0.0064903850000002095,1.5812431375348105e-05,4.220021562031844e-06,7.455775851035841e-06,5.401099966630403e-06,4.0498132919590594e-05,7.868598454996926e-07,Unknown
0.007009615000000302,1.580809008159456e-05,4.280098466373352e-06,7.456186735176848e-06,5.402166898093521e-06,4.043198079475069e-05,7.896281399005649e-07,Unknown
0.007528845999999589,1.580704280135482e-05,4.338317849637155e-06,7.451892985434647e-06,5.402509544880631e-06,4.038193615589719e-05,7.926415266409092e-07,Unknown
0.008048076999999765,1.5808486688038207e-05,4.371106577206883e-06,7.442232697542818e-06,5.400087780735661e-06,4.036322018550907e-05,7.960546781951765e-07,Unknown
0.00856730799999994,1.580891899020665e-05,4.377570570272773e-06,7.428193362946121e-06,5.398055741760372e-06,4.036467121867175e-05,7.998540927308347e-07,Unknown
0.009086538000000033,1.5807008652171156e-05,4.374633495596718e-06,7.413992010306229e-06,5.3973968125704e-06,4.036149393998641e-05,8.037383986233244e-07,Unknown
0.009605769000000208,1.5803190580937886e-05,4.377148109168286e-06,7.40430068189159e-06,5.398213887331504e-06,4.0346397378742775e-05,8.071845115350407e-07,Unknown
0.010125000000000384,1.579924193140711e-05,4.385739071292448e-06,7.399350830255493e-06,5.402576513870683e-06,4.032650785503083e-05,8.098435561745591e-07,Unknown
0.010644230999999671,1.5797130197485976e-05,4.395033716772244e-06,7.397702671475032e-06,5.407802800354042e-06,4.030923662099679e-05,8.117791974694366e-07,Unknown
0.011163461999999846,1.5796686578133467e-05,4.403775614407796e-06,7.400943827720525e-06,5.409246968558812e-06,4.029940933144956e-05,8.132676772033124e-07,Unknown
0.011682691999999939,1.5796604768416656e-05,4.415030262602315e-06,7.408711781837404e-06,5.407602137720766e-06,4.029684886243429e-05,8.14469922978029e-07,Unknown
0.012201923000000114,1.5796046348996766e-05,4.43279198286843e-06,7.413682339152793e-06,5.406306005029885e-06,4.0296834744493697e-05,8.153457778403421e-07,Unknown
0.01272115400000029,1.579506838190455e-05,4.455423925690212e-06,7.411572899332794e-06,5.406138014296898e-06,4.029673631215214e-05,8.158050237873239e-07,Unknown
0.013240384999999577,1.5793783811502014e-05,4.474518293175728e-06,7.406860707695548e-06,5.406391624038887e-06,4.029122419748089e-05,8.158649095272428e-07,Unknown
0.01375961499999967,1.579169661385372e-05,4.483854358742536e-06,7.403452233195502e-06,5.406341656249198e-06,4.0270097656044925e-05,8.156585771211018e-07,Unknown
0.014278845999999845,1.578862267605411e-05,4.482508284943704e-06,7.403038338093754e-06,5.402509625139597e-06,4.023417749473925e-05,8.153283959190507e-07,Unknown
0.01479807700000002,1.5784974627019545e-05,4.470568573300831e-06,7.406589617658353e-06,5.395808272922164e-06,4.019766701865124e-05,8.149343610789373e-07,Unknown
0.015317308000000196,1.5781822858909815e-05,4.448252951632835e-06,7.411797636676756e-06,5.391777672994717e-06,4.017212246161135e-05,8.144931770191168e-07,Unknown
0.01583653800000029,1.5780513856549947e-05,4.417361838874064e-06,7.416650832596131e-06,5.390483358785971e-06,4.015861378572894e-05,8.140380791169895e-07,Unknown
0.016355768999999576,1.5780727367621203e-05,4.380261977922832e-06,7.421966355988306e-06,5.389089665650154e-06,4.015235945717964e-05,8.136005006359003e-07,Unknown
0.01687499999999975,1.5780667612330566e-05,4.339990888024208e-06,7.429441611734479e-06,5.383813362108917e-06,4.014880109794853e-05,8.134247211307908e-07,Unknown
0.017394230999999927,1.5779667407307225e-05,4.300807196122534e-06,7.439704598768238e-06,5.373151529640829e-06,4.0145120647058034e-05,8.139106833062481e-07,Unknown
0.017913462000000102,1.5778510478119486e-05,4.263422204694558e-06,7.451873273838051e-06,5.365105625550538e-06,4.014016568483541e-05,8.150347418438475e-07,Unknown
0.018432692000000195,1.5778270463790768e-05,4.223291572803786e-06,7.464049936566608e-06,5.365474591228979e-06,4.013522323244802e-05,8.164771238171347e-07,Unknown
0.01895192300000037,1.5782193620178978e-05,4.1761328953392165e-06,7.474024158403527e-06,5.3690329024766e-06,4.013204590118977e-05,8.181892643245208e-07,Unknown
0.019471153999999657,1.5793777849184328e-05,4.123060184661954e-06,7.481060042325678e-06,5.369862894219265e-06,4.0130483119257406e-05,8.203842949755825e-07,Unknown
0.019990384999999833,1.5808394570450946e-05,4.072169237245783e-06,7.48679668539621e-06,5.36626537011218e-06,4.012958261448078e-05,8.231178634236041e-07,Unknown
0.020509614999999926,1.5817386438855187e-05,4.032597860058704e-06,7.4939335464208e-06,5.359606148857944e-06,4.012891857456846e-05,8.260156836285539e-07,Unknown
0.0210288460000001,1.5820160948514588e-05,4.005658857340441e-06,7.504266198614884e-06,5.353430239265925e-06,4.012860825655243e-05,8.286441961498347e-07,Unknown
0.021548077000000276,1.582088116681315e-05,3.985937837745729e-06,7.51593476180264e-06,5.349873396079249e-06,4.012860749824252e-05,8.309239938378238e-07,Unknown
0.022067308000000452,1.582167331561191e-05,3.969646761717465e-06,7.524629430768237e-06,5.34815909270265e-06,4.012835695706351e-05,8.32948115843223e-07,Unknown
0.022586537999999656,1.5823476855196508e-05,3.956997422121532e-06,7.52914069897634e-06,5.346924024071313e-06,4.012783141896334e-05,8.347048543066298e-07,Unknown
0.02310576899999983,1.5825337971996816e-05,3.948109663232835e-06,7.532135303378691e-06,5.344867367216922e-06,4.01273435012739e-05,8.359609235422836e-07,Unknown
0.023625000000000007,1.5825491562658042e-05,3.941329729933209e-06,7.535614456397911e-06,5.341968622034792e-06,4.012703655526279e-05,8.362315743316164e-07,Unknown
0.024144231000000183,1.582488024108874e-05,3.933333247826095e-06,7.539124878092439e-06,5.339889409912273e-06,4.012716751373353e-05,8.351973359238068e-07,Unknown
0.024663462000000358,1.5824789301943876e-05,3.922638087650762e-06,7.542040002826052e-06,5.339070034295831e-06,4.012717895625331e-05,8.33326927067508e-07,Unknown
0.02518269200000045,1.582478900795187e-05,3.914097189845694e-06,7.543511365270364e-06,5.338867488911343e-06,4.012671837838642e-05,8.316083073959958e-07,Unknown
0.025701922999999738,1.5825003167483997e-05,3.91167446342718e-06,7.541413001465092e-06,5.339167476972209e-06,4.012688385779653e-05,8.307120850579816e-07,Unknown
0.026221153999999913,1.5825324148219732e-05,3.91422811159664e-06,7.535133552245409e-06,5.339915493915248e-06,4.012811703532715e-05,8.307264345241206e-07,Unknown
0.02674038500000009,1.5825493600293375e-05,3.919539154971519e-06,7.527300965135946e-06,5.340116184005534e-06,4.0129330253387735e-05,8.313594906591167e-07,Unknown
0.02725961500000018,1.5825734574437416e-05,3.9242870471917e-06,7.520794832339387e-06,5.339458821557368e-06,4.012988855734499e-05,8.321858049683968e-07,Unknown
0.027778846000000357,1.5825605911037782e-05,3.927209703872645e-06,7.515919508463957e-06,5.338572446175686e-06,4.013047198034355e-05,8.328999309244346e-07,Unknown
0.028298076999999644,1.582528300844074e-05,3.930420499955897e-06,7.512890474362537e-06,5.33797426371698e-06,4.013163847752079e-05,8.334166070215715e-07,Unknown
0.02881730799999982,1.5825156773791098e-05,3.936300701393636e-06,7.515008731840046e-06,5.338545468476465e-06,4.013285386417453e-05,8.33757445136796e-07,Unknown
0.029336537999999912,1.582551218382168e-05,3.943191240907345e-06,7.518371266723341e-06,5.3386434184785945e-06,4.013292235971874e-05,8.339745269552615e-07,Unknown
0.029855769000000087,1.5826576109659453e-05,3.944555941846941e-06,7.517918545721992e-06,5.335859807814981e-06,4.01306419435536e-05,8.341920162972812e-07,Unknown
0.030375000000000263,1.5827301846245626e-05,3.939556551158662e-06,7.577126149093396e-06,5.3296582176656285e-06,4.012456142974289e-05,8.344995740403258e-07,Unknown
0.03089423100000044,1.5827224286928723e-05,3.931034743598047e-06,7.81856607747935e-06,5.312545987559129e-06,4.01124659897772e-05,8.347441560994205e-07,Unknown
0.031413461999999726,1.582752921436712e-05,3.915809550595807e-06,8.242518288711473e-06,5.2744004951473325e-06,4.009317889094866e-05,8.347637312394716e-07,Unknown
0.03193269199999982,1.5828506701725037e-05,3.895729157986428e-06,8.703964848614334e-06,5.2210284940575964e-06,4.006636419010379e-05,8.346202607906661e-07,Unknown
0.032451922999999994,1.5828977877094134e-05,3.879515118640343e-06,9.099183364317593e-06,5.168193030355843e-06,4.00305849826962e-05,8.343651769246504e-07,Unknown
0.03297115400000017,1.5828919527019904e-05,3.868056527204242e-06,9.425500253218272e-06,5.124582827067974e-06,3.998872561417284e-05,8.338471164965599e-07,Unknown
0.033490385000000344,1.58286206381828e-05,3.857164429616154e-06,9.706884756080956e-06,5.090576247337029e-06,3.995152827725678e-05,8.326539231187712e-07,Unknown
0.03400961500000044,1.5827726758148615e-05,3.846600105564376e-06,9.937483658518592e-06,5.05769155713025e-06,3.992747405620984e-05,8.304227261557222e-07,Unknown
0.034528845999999724,1.582723792552257e-05,3.838779234179468e-06,1.009377139146798e-05,5.010949389656288e-06,3.991682296311542e-05,8.275631952594578e-07,Unknown
0.0350480769999999,1.5827316400074576e-05,3.83597166374866e-06,1.0177962744637197e-05,4.942641999974632e-06,3.99162313628132e-05,8.250443232118667e-07,Unknown
0.035567308000000075,1.5827613305858488e-05,3.838062963676963e-06,1.0220001378102966e-05,4.86334392845976e-06,3.991136844697631e-05,8.232672864250446e-07,Unknown
0.03608653800000017,1.5829841000200748e-05,3.841366875870522e-06,1.0248187445825792e-05,4.797191232693474e-06,3.985732946439892e-05,8.218924839927572e-07,Unknown
0.03660576900000034,1.5832457460109253e-05,3.840778695145704e-06,1.027931802411077e-05,4.7575797782071895e-06,3.969534042528279e-05,8.204423492767062e-07,Unknown
0.03712499999999963,1.5832167925064757e-05,3.833620397125484e-06,1.0310920993962216e-05,4.733254850014953e-06,3.941640488193966e-05,8.1877540054232e-07,Unknown
0.037644230999999806,1.5831876268783257e-05,3.823715723902737e-06,1.0322189357779272e-05,4.708558681695476e-06,3.907425679396706e-05,8.174370919853359e-07,Unknown
0.03816346199999998,1.5834208864729634e-05,3.821732867747066e-06,1.0324238308872893e-05,4.6773156049358905e-06,3.872733171616714e-05,8.17147407691659e-07,Unknown
0.038682692000000074,1.583625564629487e-05,3.836372001794107e-06,1.0395694798604677e-05,4.6423418503943e-06,3.841066004061647e-05,8.177910173490678e-07,Unknown
0.03920192300000025,1.583628704079733e-05,3.863766495646531e-06,1.0633865557499748e-05,4.618425600524065e-06,3.815734459436749e-05,8.183816401591294e-07,Unknown
0.039721154000000425,1.5835205751414868e-05,3.8902515529324124e-06,1.1076060676660684e-05,4.6121333534763735e-06,3.8001637853690206e-05,8.180712452123767e-07,Unknown
0.04024038499999971,1.583325059018473e-05,3.905784368111021e-06,1.166954511831932e-05,4.611862679260139e-06,3.794411779942754e-05,8.168804359795828e-07,Unknown
0.040759614999999805,1.582925487855027e-05,3.910220116464538e-06,1.23027151929984e-05,4.611992510699048e-06,3.794016771250677e-05,8.153143829171061e-07,Unknown
0.04127884599999998,1.5822745338411658e-05,3.908868906616231e-06,1.2866689922202717e-05,4.613063396579501e-06,3.7930286097740216e-05,8.137025835074243e-07,Unknown
0.041798077000000156,1.58161219911639e-05,3.910036527610034e-06,1.3302450020166064e-05,4.610601749789003e-06,3.784694527679903e-05,8.121638536233603e-07,Unknown
0.04231730800000033,1.5812051445024216e-05,3.927802224766745e-06,1.3604741110093952e-05,4.596498177217872e-06,3.7585647062195024e-05,8.109322194159806e-07,Unknown
0.042836538000000424,1.581010918704429e-05,3.978508781433781e-06,1.3795611618632326e-05,4.562587804196631e-06,3.7033610237671805e-05,8.103538047377702e-07,Unknown
0.04335576899999971,1.580882950131463e-05,4.069917441953343e-06,1.390120901561222e-05,4.513025350795676e-06,3.622181817046532e-05,8.103445657762677e-07,Unknown
0.043874999999999886,1.5807899876170558e-05,4.190799151215608e-06,1.3946756240366214e-05,4.461733865010557e-06,3.5409562837606e-05,8.104078631825228e-07,Unknown
0.04439423100000006,1.580722466080368e-05,4.310075203719383e-06,1.3958779290728848e-05,4.413997335216541e-06,3.487634885618615e-05,8.104053241266714e-07,Unknown
0.04491346200000024,1.580676039263419e-05,4.400291671914661e-06,1.3959614850254496e-05,4.36370631690719e-06,3.467513006631353e-05,8.103829720169125e-07,Unknown
0.04543269200000033,1.5806024006602063e-05,4.464158523204112e-06,1.3959572589716748e-05,4.302793321593848e-06,3.465881960658463e-05,8.101588363830589e-07,Unknown
0.04595192299999962,1.580479954529906e-05,4.524858525097754e-06,1.3960078311756175e-05,4.229892211903452e-06,3.4624790797437264e-05,8.099135204060392e-07,Unknown
0.04647115399999979,1.5804182770167653e-05,4.603735502670114e-06,1.3961205728095344e-05,4.150987288177692e-06,3.4437159823062034e-05,8.100644119056983e-07,Unknown
0.04699038499999997,1.5803897521743566e-05,4.704740225156279e-06,1.3963328368937122e-05,4.065956997590067e-06,3.4159126931889346e-05,8.106098389044765e-07,Unknown
0.04750961500000006,1.5803678076498838e-05,4.804584351107674e-06,1.3967105836878756e-05,3.963444725774395e-06,3.400155507538495e-05,8.114352534235934e-07,Unknown
0.048028846000000236,1.580477420394686e-05,4.879367205848564e-06,1.3973955836883218e-05,3.837563737303778e-06,3.399615391915731e-05,8.125814595638822e-07,Unknown
0.04854807700000041,1.5806524435229717e-05,4.930897068371448e-06,1.398340595524058e-05,3.693084435309526e-06,3.390960256483179e-05,8.139709503314937e-07,Unknown
0.0490673079999997,1.580778457309845e-05,4.973874199976621e-06,1.39926323037025e-05,3.533014995748633e-06,3.36108579796189e-05,8.152777978553603e-07,Unknown
0.04958653799999979,1.580860460679568e-05,5.014048842633563e-06,1.4000465006972631e-05,3.3570630121793047e-06,3.326851594265959e-05,8.161888893638243e-07,Unknown
0.05010576899999997,1.5809015006810502e-05,5.0419826184978585e-06,1.4007408402975544e-05,3.1686271130600547e-06,3.308671362223334e-05,8.165559671353634e-07,Unknown
0.05062500000000014,1.580915307104172e-05,5.0502268032220136e-06,1.4013792211639098e-05,2.9881143558481835e-06,3.3057368761291745e-05,8.162777180350629e-07,Unknown
0.05114423100000032,1.5809083158602228e-05,5.04779208938382e-06,1.4021325081145384e-05,2.8515232769101787e-06,3.305440995741569e-05,8.153152435292817e-07,Unknown
0.051663461999999605,1.5808956547232917e-05,5.051796159996158e-06,1.4031814126567608e-05,2.7696491492083354e-06,3.300945179372316e-05,8.137292941812718e-07,Unknown
0.0521826919999997,1.580928767850082e-05,5.0771836666889886e-06,1.4044771684214125e-05,2.718791396394966e-06,3.293369629194672e-05,8.117267925904977e-07,Unknown
0.05270192299999987,1.58098164766619e-05,5.135400227381801e-06,1.4059153254336622e-05,2.676742082461154e-06,3.285873760065287e-05,8.095860113593859e-07,Unknown
0.05322115400000005,1.5809952339402522e-05,5.228790746878009e-06,1.4073787538937173e-05,2.6381585499586667e-06,3.2801639945236e-05,8.073775581471974e-07,Unknown
0.053740385000000224,1.5809978105927378e-05,5.3388153709254336e-06,1.4086808713426104e-05,2.614124632099044e-06,3.276328914446912e-05,8.049275682912714e-07,Unknown
0.054259615000000316,1.580918290311441e-05,5.43483508332072e-06,1.409738740493066e-05,2.6094459242304363e-06,3.27382186884819e-05,8.020980512263858e-07,Unknown
0.054778845999999604,1.5806520517082565e-05,5.5007009698030805e-06,1.4106534857341304e-05,2.6116473099691587e-06,3.272226434807994e-05,7.988689681676745e-07,Unknown
0.05529807699999978,1.5803920315301046e-05,5.5429673176220975e-06,1.4115978410577966e-05,2.616555645261566e-06,3.271396924584853e-05,7.951470954648942e-07,Unknown
0.055817307999999954,1.580327290414664e-05,5.576522247564723e-06,1.412665642345377e-05,2.625259910804436e-06,3.271227114370304e-05,7.90770234239538e-07,Unknown
0.05633653800000005,1.5803424364112075e-05,5.610250567980719e-06,1.4137282113512203e-05,2.632756728384605e-06,3.271150810672176e-05,7.858209150258793e-07,Unknown
0.05685576900000022,1.5803440592821763e-05,5.6430008480574285e-06,1.4145004298363822e-05,2.6369611324750546e-06,3.270196269807691e-05,7.809795157368994e-07,Unknown
0.0573750000000004,1.5803386764708267e-05,5.666311993875844e-06,1.4149079503527205e-05,2.6379482201032167e-06,3.268421311093345e-05,7.772635538967552e-07,Unknown
0.057894230999999685,1.5802621493337282e-05,5.67279324542954e-06,1.4152191903120806e-05,2.6362882445045765e-06,3.267147071487897e-05,7.750635924241077e-07,Unknown
0.05841346199999986,1.580109704303446e-05,5.66571294448613e-06,1.4156683462700192e-05,2.634015905355178e-06,3.2668368127460874e-05,7.739640322449103e-07,Unknown
0.05893269199999995,1.580013112883681e-05,5.655925648601588e-06,1.4161849342498444e-05,2.631184650483544e-06,3.266859094106542e-05,7.734796250232154e-07,Unknown
0.05945192300000013,1.580021088698601e-05,5.650082323312831e-06,1.4165506705295026e-05,2.625319622555887e-06,3.2668224154591386e-05,7.733469573106774e-07,Unknown
0.059971154000000304,1.5799728303283522e-05,5.64908826562124e-06,1.416710901990474e-05,2.612953550293905e-06,3.2662478216507646e-05,7.734047686717268e-07,Unknown
0.06049038499999959,1.5796323027297042e-05,5.652378476806177e-06,1.416802084299448e-05,2.594288498170787e-06,3.26275167652485e-05,7.734038829579155e-07,Unknown
0.061009614999999684,1.5790880249033108e-05,5.657478870130069e-06,1.416925445977298e-05,2.575056563467725e-06,3.250740246688681e-05,7.729551543992028e-07,Unknown
0.06152884599999986,1.578745760040316e-05,5.660610485531287e-06,1.4171188042847702e-05,2.558883049551828e-06,3.226831735435453e-05,7.717064286403617e-07,Unknown
0.062048077000000035,1.578631220723853e-05,5.658929324165677e-06,1.4172508635250086e-05,2.540749172641438e-06,3.1978851193201906e-05,7.69413489545342e-07,Unknown
0.06256730800000021,1.578615547065589e-05,5.652865797158601e-06,1.4171261893098954e-05,2.510173875373028e-06,3.176032343399347e-05,7.657822025374636e-07,Unknown
0.0630865380000003,1.5787896121073965e-05,5.647074512455328e-06,1.4168718358181198e-05,2.4632292486226257e-06,3.1652564938801294e-05,7.602469259303198e-07,Unknown
0.06360576899999959,1.5789934865118746e-05,5.645597866783411e-06,1.4167179082040108e-05,2.404819947228462e-06,3.1603584664528856e-05,7.522454037180869e-07,Unknown
0.06412499999999977,1.5790606074752644e-05,5.64676751602658e-06,1.4166835424832363e-05,2.337924429486332e-06,3.155186992121096e-05,7.419985665868425e-07,Unknown
0.06464423099999994,1.5790947712066934e-05,5.647563322219887e-06,1.41673204832717e-05,2.2632789625672543e-06,3.1431090271821496e-05,7.305276020109781e-07,Unknown
0.06516346200000012,1.5792102746221034e-05,5.647833953648273e-06,1.416859043410037e-05,2.1888615944390254e-06,3.116947804665292e-05,7.189233294463739e-07,Unknown
0.06568269200000021,1.5794377071095053e-05,5.647915274069801e-06,1.4169560842494294e-05,2.1290256057421354e-06,3.075869371564294e-05,7.084741610053549e-07,Unknown
0.06620192300000038,1.5795729991949508e-05,5.647964214699122e-06,1.416841947597318e-05,2.090813630055895e-06,3.026746922573869e-05,7.007790413109439e-07,Unknown
0.06672115399999967,1.579451948611563e-05,5.648412471490466e-06,1.4166330976151154e-05,2.0704387362146344e-06,2.9816255411561564e-05,6.970217210626005e-07,Unknown
0.06724038499999985,1.5793531660429768e-05,5.650076820076398e-06,1.4166531344509156e-05,2.0621901331312884e-06,2.957788520085525e-05,6.973174415839832e-07,Unknown
0.06775961499999994,1.5794888613129756e-05,5.651646354037918e-06,1.4168887557459036e-05,2.0590382319092966e-06,2.957266998269732e-05,7.005383219116187e-07,Unknown
0.06827884600000012,1.5796158625337924e-05,5.651118582072717e-06,1.4171113368313576e-05,2.0536918425660003e-06,2.929853526762451e-05,7.046594299503918e-07,Unknown
0.06879807700000029,1.5795018845300422e-05,5.650158464789158e-06,1.4172199691338271e-05,2.047695806408276e-06,2.812388241468778e-05,7.074899971975444e-07,Unknown
0.06931730799999958,1.5791896241025684e-05,5.649564273587932e-06,1.417169191949254e-05,2.047545370157187e-06,2.6327196871751662e-05,7.080470855951616e-07,Unknown
0.06983653799999967,1.578825329007821e-05,5.647766038846364e-06,1.4169996756374574e-05,2.05385149565768e-06,2.496693543188265e-05,7.071488676976756e-07,Unknown
0.07035576899999985,1.578549625552958e-05,5.645545404680521e-06,1.4168997447518244e-05,2.057295096538026e-06,2.449442901292448e-05,7.061238625851279e-07,Unknown
0.07087500000000002,1.5784405826306195e-05,5.641805334898839e-06,1.417018978560597e-05,2.0415472462352824e-06,2.4460587777262662e-05,7.056508360491169e-07,Unknown
0.0713942310000002,1.578490043670774e-05,5.632535559842366e-06,1.4173358618407742e-05,2.004293173868748e-06,2.443895092463793e-05,7.056412333935588e-07,Unknown
0.07191346200000037,1.5786585762421692e-05,5.621214477575557e-06,1.417734637111954e-05,1.9662471223849773e-06,2.4340755947106264e-05,7.056760871455919e-07,Unknown
0.07243269199999958,1.5788713682535465e-05,5.615224281836925e-06,1.418130100939383e-05,1.94548305000275e-06,2.4206566650194582e-05,7.055398427960228e-07,Unknown
0.07295192299999975,1.5790089020180414e-05,5.614601730435177e-06,1.418502657280494e-05,1.940623857457951e-06,2.4093117927961844e-05,7.052793554423357e-07,Unknown
0.07347115399999993,1.5789870810801598e-05,5.615641624858498e-06,1.4188447536997892e-05,1.9424536522518484e-06,2.4047057168000848e-05,7.04965977120991e-07,Unknown
0.0739903850000001,1.5788119214223225e-05,5.616564417718002e-06,1.419112128489548e-05,1.943566361560714e-06,2.404752988153513e-05,7.04590666129669e-07,Unknown
0.0745096150000002,1.5785621917036823e-05,5.6168715574497e-06,1.419241760899567e-05,1.942081862069768e-06,2.3992507667135848e-05,7.042153840694129e-07,Unknown
0.07502884600000037,1.5783378846500535e-05,5.616860064346967e-06,1.419257240500317e-05,1.9422543807552206e-06,2.382651752598524e-05,7.041162801117992e-07,Unknown
0.07554807699999966,1.5781922707145916e-05,5.616551115735807e-06,1.419254877824634e-05,1.9445589733976677e-06,2.365840332012961e-05,7.043667041761042e-07,Unknown
0.07606730799999983,1.578106985927433e-05,5.615546792392496e-06,1.419240503127623e-05,1.9460086449909054e-06,2.3619032090066063e-05,7.045562620069001e-07,Unknown
0.07658653799999993,1.5780437590887687e-05,5.614010584705824e-06,1.4192114153840496e-05,1.947157055091391e-06,2.359670762721617e-05,7.043838252340218e-07,Unknown
0.0771057690000001,1.5780162657991048e-05,5.612263370527606e-06,1.4192510076679974e-05,1.949301367777536e-06,2.339894780833087e-05,7.039951627318914e-07,Unknown
0.07762500000000028,1.5781537376737276e-05,5.610724412847467e-06,1.4193506794633052e-05,1.9510455997949493e-06,2.3186613823506964e-05,7.036078481220436e-07,Unknown
0.07814423100000045,1.5785617037195988e-05,5.610047520716487e-06,1.4193905966677612e-05,1.9510019599013308e-06,2.3173767446102144e-05,7.032712663687657e-07,Unknown
0.07866346199999974,1.579036190327067e-05,5.610488772391368e-06,1.4193552495732673e-05,1.951575997808889e-06,2.298150941011848e-05,7.02890375968424e-07,Unknown
0.07918269199999983,1.5792870556079987e-05,5.612818039729591e-06,1.419331721982442e-05,1.9513567941616777e-06,2.2157077344345333e-05,7.023524254568571e-07,Unknown
0.07970192300000001,1.5793029206705972e-05,5.616493426849089e-06,1.4193413963636788e-05,1.94711874190902e-06,2.0961991036478117e-05,7.017752553524386e-07,Unknown
0.08022115400000018,1.5792691378122102e-05,5.617941658180541e-06,1.4193462106063877e-05,1.94217692797903e-06,1.998377449293373e-05,7.013813297803549e-07,Unknown
0.08074038500000036,1.579451863233408e-05,5.6172091198409164e-06,1.4193406140014558e-05,1.9401381867768894e-06,1.9429777131811312e-05,7.012289508614257e-07,Unknown
0.08125961500000045,1.579903010867724e-05,5.616073614391802e-06,1.4193480662500234e-05,1.9397795877864843e-06,1.91649660854922e-05,7.012494089138789e-07,Unknown
0.08177884599999974,1.5804783346183482e-05,5.61505208607296e-06,1.419330045750717e-05,1.937418572150818e-06,1.90374519763054e-05,7.012312968373764e-07,Unknown
0.08229807699999991,1.581135007321145e-05,5.616125124900214e-06,1.4192200772986456e-05,1.9332678981743067e-06,1.8972255589812475e-05,7.009779649392099e-07,Unknown
0.08281730800000009,1.581626349767183e-05,5.618222801836034e-06,1.4190910223102313e-05,1.9302761712923725e-06,1.893881050695207e-05,7.006737969058319e-07,Unknown
0.08333653800000018,1.5817329996951105e-05,5.6189773008309445e-06,1.4190262928011484e-05,1.930547782063204e-06,1.8923329817718114e-05,7.005089744740469e-07,Unknown
0.08385576900000036,1.5817230491110194e-05,5.618966299674943e-06,1.4189968293811706e-05,1.9344918210779416e-06,1.8918293290431696e-05,7.004319849647823e-07,Unknown
0.08437499999999964,1.581713434502386e-05,5.618992444018644e-06,1.4189958411606563e-05,1.9399153303063424e-06,1.891799086929028e-05,7.006068875577951e-07,Unknown
0.08489423099999982,1.581531710036816e-05,5.619099940556324e-06,1.4189921869842073e-05,1.945303013355226e-06,1.891652586479731e-05,7.010151315652348e-07,Unknown
0.085413462,1.5813343513287137e-05,5.619713039639452e-06,1.4189467956552835e-05,1.950518662251278e-06,1.8906722161882213e-05,7.012439553432019e-07,Unknown
0.08593269200000009,1.5812911573313426e-05,5.621887780698675e-06,1.418887132320828e-05,1.9525779123135564e-06,1.888491846818897e-05,7.012250589762459e-07,Unknown
0.08645192300000026,1.581309329524566e-05,5.62544773480188e-06,1.418860145932212e-05,1.9455904516748835e-06,1.8858474320083916e-05,7.011739371979621e-07,Unknown
0.08697115400000044,1.5813443752795617e-05,5.627544289067896e-06,1.4188722579041794e-05,1.9271089823930664e-06,1.883755024305308e-05,7.011686386671031e-07,Unknown
0.08749038499999973,1.5813477819294465e-05,5.626883387976139e-06,1.4188450807001506e-05,1.8998261152022249e-06,1.882206054017265e-05,7.01188516044011e-07,Unknown
0.08800961499999982,1.581254167437873e-05,5.625844603831972e-06,1.4187876681075758e-05,1.873514304987232e-06,1.88046022898766e-05,7.011861977488261e-07,Unknown
0.088528846,1.5810502899025035e-05,5.626151801621509e-06,1.4187634610281058e-05,1.8618407580734932e-06,1.8774939567656537e-05,7.011991511097997e-07,Unknown
0.08904807700000017,1.5808490269252125e-05,5.627947441722478e-06,1.418748293652901e-05,1.864769583616502e-06,1.872825826777725e-05,7.011991525092848e-07,Unknown
0.08956730800000035,1.5810560715061722e-05,5.630446501674287e-06,1.4187438284269908e-05,1.8711308049364173e-06,1.8668397992651823e-05,7.011783167159059e-07,Unknown
0.09008653800000044,1.581987207274703e-05,5.632471861880475e-06,1.4187514489069869e-05,1.8748146567951935e-06,1.8588653186054675e-05,7.011923509133014e-07,Unknown
0.09060576899999973,1.5833399841828615e-05,5.634288107728391e-06,1.41874552835707e-05,1.8746827864431643e-06,1.846439389290886e-05,7.011835734744697e-07,Unknown
0.0911249999999999,1.5845651926811453e-05,5.637043873090562e-06,1.4187053125063332e-05,1.8709295855622795e-06,1.827747992270665e-05,7.012066453157957e-07,Unknown
0.09164423100000008,1.585502400306385e-05,5.641677089053128e-06,1.418669944998691e-05,1.864575802494194e-06,1.8059707849461592e-05,7.01287249595613e-07,Unknown
0.09216346200000025,1.586367287170224e-05,5.647094148065644e-06,1.4186769236997506e-05,1.857889532384536e-06,1.7887579096922345e-05,7.012946163964412e-07,Unknown
0.09268269200000034,1.5874134254415078e-05,5.650715516027339e-06,1.4186824674932615e-05,1.8509935849596603e-06,1.7809290755651443e-05,7.011045569381394e-07,Unknown
0.09320192299999963,1.5884569478698904e-05,5.652471015851722e-06,1.4186866416811273e-05,1.8395395429552367e-06,1.780174785611209e-05,7.004929857204086e-07,Unknown
0.0937211539999998,1.5890088977925846e-05,5.652018454596675e-06,1.4186354563777972e-05,1.8233045366475043e-06,1.7786485387641286e-05,6.992197712681047e-07,Unknown
0.09424038499999998,1.5890939627135222e-05,5.647750031728081e-06,1.4185085850329992e-05,1.8127437018205408e-06,1.768299299309867e-05,6.970991833082116e-07,Unknown
0.09475961500000007,1.5890662339248086e-05,5.642342656694902e-06,1.4184602694323466e-05,1.8133901884967256e-06,1.7498533535250723e-05,6.938728242322488e-07,Unknown
0.09527884600000025,1.589008499891942e-05,5.639834776317889e-06,1.4184628239221928e-05,1.818645736703225e-06,1.733958195091614e-05,6.89322671585361e-07,Unknown
0.09579807700000043,1.5889202423359185e-05,5.6402383402853565e-06,1.4184314959310025e-05,1.826967143000837e-06,1.7274739820021753e-05,6.835539000687671e-07,Unknown
0.09631730799999971,1.58884330113414e-05,5.641310421600787e-06,1.418455239447273e-05,1.8401780599103115e-06,1.7268300938426517e-05,6.770865206277705e-07,Unknown
0.0968365379999998,1.588776805792136e-05,5.6414710916795554e-06,1.418443393314972e-05,1.8513937010234028e-06,1.726814882555388e-05,6.706580455115044e-07,Unknown
0.09735576899999998,1.5887346029192715e-05,5.640880352511837e-06,1.4183029984276265e-05,1.8499751008836072e-06,1.7252643403514406e-05,6.650661700364145e-07,Unknown
0.09787500000000016,1.5887915656486647e-05,5.640286835584321e-06,1.4182262496350486e-05,1.836687431983331e-06,1.7203281405447797e-05,6.609480383244877e-07,Unknown
0.09839423100000033,1.588997578900857e-05,5.639872260830279e-06,1.4182792856265283e-05,1.8218384835316468e-06,1.7088991082476056e-05,6.584817947756061e-07,Unknown
0.09891346199999962,1.5895043783967567e-05,5.640142579498041e-06,1.4182076169516386e-05,1.813964590916208e-06,1.6895720058874522e-05,6.571192217989382e-07,Unknown
0.09943269199999971,1.5900373819935544e-05,5.642454356541274e-06,1.4178127137055102e-05,1.8140825086844577e-06,1.6663368579372345e-05,6.558669779282644e-07,Unknown
0.09995192299999989,1.581752491527232e-05,5.646860664554617e-06,1.4172054799264633e-05,1.8184278355288724e-06,1.645908519879978e-05,6.542855897592087e-07,Unknown
0.10047115400000006,1.541826059953223e-05,5.650623939745184e-06,1.4167100513304074e-05,1.831194774444491e-06,1.6317193108170906e-05,6.527873852552704e-07,Unknown
0.10099038500000024,1.4584307801883328e-05,5.652137151827902e-06,1.4165877313170305e-05,1.847176329398342e-06,1.622885955149353e-05,6.522502613452203e-07,Unknown
0.10150961500000033,1.3558201760744076e-05,5.653286070298322e-06,1.4166404151301865e-05,1.853050833629883e-06,1.617578705045902e-05,6.534939772233691e-07,Unknown
0.10202884599999962,1.2725135027552922e-05,5.652553547107708e-06,1.4163422543562854e-05,1.8538229401624145e-06,1.6155839341981064e-05,6.563754537319522e-07,Unknown
0.1025480769999998,1.2260045462871575e-05,5.636077633674985e-06,1.4154961831046116e-05,1.8528296674064865e-06,1.6161261966128403e-05,6.598864432798551e-07,Unknown
0.10306730799999997,1.2109577665342797e-05,5.593077200073622e-06,1.414147652395265e-05,1.8501400065738224e-06,1.614441417309517e-05,6.633519965518367e-07,Unknown
0.10358653800000006,1.2124298286406312e-05,5.534997200313318e-06,1.4120349124208955e-05,1.8567988547431611e-06,1.6095272739723565e-05,6.667913521500324e-07,Unknown
0.10410576900000024,1.2105959201049908e-05,5.485204835216217e-06,1.4086293541948204e-05,1.8669265938076712e-06,1.6090330152056925e-05,6.706395733253152e-07,Unknown
0.10462500000000041,1.187375008589662e-05,5.459736283892506e-06,1.4040874566284714e-05,1.8644114816837103e-06,1.6082815708065858e-05,6.753060719006047e-07,Unknown
0.1051442309999997,1.136857254240978e-05,5.457720854272523e-06,1.3996848134406244e-05,1.8559140231179216e-06,1.580109339831257e-05,6.806480203316598e-07,Unknown
0.10566346199999987,1.0652396358848345e-05,5.466271849368738e-06,1.3958870830046626e-05,1.852689780444468e-06,1.5053632085167854e-05,6.861050907745749e-07,Unknown
0.10618269199999997,9.813007364816757e-06,5.4750326081438175e-06,1.391156306004176e-05,1.853722367956816e-06,1.3998681338342896e-05,6.913490761112662e-07,Unknown
0.10670192300000014,8.910546841466394e-06,5.482063757950733e-06,1.3828290630735568e-05,1.8641633008733076e-06,1.3022188073185636e-05,6.967423024639949e-07,Unknown
0.10722115400000032,8.00700142133601e-06,5.48934138980748e-06,1.3708367581978785e-05,1.890946527226474e-06,1.238718376582057e-05,7.024599997547696e-07,Unknown
0.1077403849999996,7.200828757351315e-06,5.497747845134759e-06,1.3610940843984186e-05,1.923510919143356e-06,1.20885175023057e-05,7.076676790324488e-07,Unknown
0.1082596149999997,6.587000721996213e-06,5.504882253414185e-06,1.3580528405301669e-05,1.946947993661533e-06,1.2021017283004936e-05,7.116234935385208e-07,Unknown
0.10877884599999987,6.1835995117907095e-06,5.507886752064463e-06,1.3580911992871091e-05,1.9617819298676616e-06,1.2025727151642628e-05,7.143513517138282e-07,Unknown
0.10929807700000005,5.937596824852316e-06,5.509179761378381e-06,1.3564563747592408e-05,1.9805379023331664e-06,1.1681819295172252e-05,7.159284736038964e-07,Unknown
0.10981730800000022,5.790614351578915e-06,5.5169074608749495e-06,1.352858608187224e-05,2.0218983605002785e-06,1.050419486052478e-05,7.160625728922226e-07,Unknown
0.11033653800000032,5.709310713822123e-06,5.537420519754633e-06,1.3490276754659211e-05,2.098595146606617e-06,8.814987982859492e-06,7.14382369705165e-07,Unknown
0.1108557689999996,5.6709745476877125e-06,5.571162091750267e-06,1.3461135118715736e-05,2.1952734776933035e-06,7.720774898992265e-06,7.109066172458784e-07,Unknown
0.11137499999999978,5.650487331578579e-06,5.615537912410746e-06,1.3444186634250349e-05,2.280876976145512e-06,7.448358759969442e-06,7.059937286046785e-07,Unknown
0.11189423099999996,5.624546937276933e-06,5.661623538111199e-06,1.3436965893362317e-05,2.3419446584336232e-06,7.4042328031891025e-06,7.000409004231482e-07,Unknown
0.11241346200000013,5.57790708560421e-06,5.6948062202039225e-06,1.3434546610762243e-05,2.3858215201457712e-06,7.308864305283152e-06,6.934345892151575e-07,Unknown
0.11293269200000022,5.526025080247543e-06,5.710531368222949e-06,1.343208149414639e-05,2.4247390193836945e-06,7.048797588295791e-06,6.866183221972883e-07,Unknown
0.1134519230000004,5.509516070520239e-06,5.719558535543183e-06,1.3420393515359032e-05,2.4684893043182696e-06,6.76818426736081e-06,6.801548414989661e-07,Unknown
0.11397115399999969,5.529420770487661e-06,5.734015747849318e-06,1.337446745535862e-05,2.522934877074724e-06,6.622171200236371e-06,6.746298748165484e-07,Unknown
0.11449038499999986,5.552920389468808e-06,5.756758449741776e-06,1.325642813027984e-05,2.5876204033571057e-06,6.544778120451325e-06,6.70351481831414e-07,Unknown
0.11500961499999995,5.5768382410074825e-06,5.784119802087729e-06,1.3053718816824482e-05,2.652309341391227e-06,6.440317438638358e-06,6.671283406219372e-07,Unknown
0.11552884600000013,5.619162506584404e-06,5.815292561496121e-06,1.2816809830907646e-05,2.7033782536467533e-06,6.248688700895696e-06,6.643588685827999e-07,Unknown
0.1160480770000003,5.68298776273791e-06,5.855825342031767e-06,1.2629845085428284e-05,2.739584814904855e-06,5.986835159109249e-06,6.612883922305657e-07,Unknown
0.11656730799999959,5.7495629317696525e-06,5.910218594534496e-06,1.2534348573786143e-05,2.7735607160468674e-06,5.725413428673864e-06,6.573437513036757e-07,Unknown
0.11708653799999968,5.803448778051414e-06,5.970099527729293e-06,1.2506043799910009e-05,2.822744912630876e-06,5.506577803211618e-06,6.527616387582881e-07,Unknown
0.11760576899999986,5.8635540429209976e-06,6.017359988922688e-06,1.2502448765903512e-05,2.8888734230709617e-06,5.345795994247313e-06,6.486604852019998e-07,Unknown
0.11812500000000004,5.967519611841056e-06,6.043165376832542e-06,1.2502379573819746e-05,2.947809361721027e-06,5.267853311493526e-06,6.458959071984733e-07,Unknown
0.11864423100000021,6.124150134585339e-06,6.053514224587694e-06,1.250245485564321e-05,2.982717913252248e-06,5.298962060926343e-06,6.443966202649283e-07,Unknown
0.11916346200000039,6.2923389405242246e-06,6.0576818065452935e-06,1.250222201092877e-05,3.000321037817484e-06,5.436079877844269e-06,6.438203699388876e-07,Unknown
0.11968269199999959,6.426414511790546e-06,6.058981768248571e-06,1.2500844264867382e-05,3.010848182830608e-06,5.651453144215126e-06,6.444909374009522e-07,Unknown
0.12020192299999977,6.527593160294393e-06,6.056152180039414e-06,1.2499040161493031e-05,3.0220064291381197e-06,5.925004046277146e-06,6.473686949663642e-07,Unknown
0.12072115399999994,6.625330028660862e-06,6.052429398848419e-06,1.2498570722811402e-05,3.038993475396824e-06,6.256811047460833e-06,6.528671573734015e-07,Unknown
0.12124038500000012,6.737645361780943e-06,6.061716512858289e-06,1.249980927268305e-05,3.052769632402472e-06,6.656182906206217e-06,6.605406588843089e-07,Unknown
0.12175961500000021,6.854654735443584e-06,6.099317528831683e-06,1.2499108610783912e-05,3.04950554277514e-06,7.122932995171729e-06,6.701312704194045e-07,Unknown
0.12227884600000039,6.951906895848321e-06,6.164384300769424e-06,1.249193153694378e-05,3.036071148732957e-06,7.633254613766814e-06,6.819644328246827e-07,Unknown
0.12279807699999967,7.0201737996767375e-06,6.244551034375103e-06,1.2480043056741683e-05,3.0311625278620763e-06,8.148825589925855e-06,6.961840908644893e-07,Unknown
0.12331730799999985,7.066791094677744e-06,6.340786860428739e-06,1.2469696212340232e-05,3.042340910905442e-06,8.63865547175687e-06,7.122418535379293e-07,Unknown
0.12383653799999994,7.100874419613356e-06,6.474940667389131e-06,1.2465011268614312e-05,3.0687359832574376e-06,9.087939595779356e-06,7.296868377366191e-07,Unknown
0.12435576900000012,7.127872707197608e-06,6.672941900646859e-06,1.2466760931387056e-05,3.110834225679397e-06,9.491787927582505e-06,7.491611578277844e-07,Unknown
0.12487500000000029,7.149683113396122e-06,6.945395211901118e-06,1.2472762505220563e-05,3.1727778981081822e-06,9.84484875148851e-06,7.720486623258517e-07,Unknown
0.12539423099999958,7.169177107017495e-06,7.292928222632776e-06,1.247826456557243e-05,3.2622359819907696e-06,1.0135206696003804e-05,7.990805025200427e-07,Unknown
0.12591346199999975,7.191343274842448e-06,7.732875248087078e-06,1.2479004858818348e-05,3.38644531027161e-06,1.0351599237600926e-05,8.295652013371493e-07,Unknown
0.12643269199999985,7.219297952444184e-06,8.302848833676446e-06,1.2474126126401216e-05,3.5424555245426237e-06,1.0500501963044026e-05,8.623468210868003e-07,Unknown
0.12695192300000002,7.252722334288222e-06,9.024550667065368e-06,1.2466683204178134e-05,3.7139713231332033e-06,1.0610416723921118e-05,8.970459478478453e-07,Unknown
0.1274711540000002,7.288399104877601e-06,9.87196549230467e-06,1.2463251254575933e-05,3.886250234918211e-06,1.0719382366926833e-05,9.33719721917144e-07,Unknown
0.12799038500000037,7.321105086532881e-06,1.0791570786950926e-05,1.2470042994653987e-05,4.061994885401302e-06,1.086169711231767e-05,9.71702579330502e-07,Unknown
0.12850961499999958,7.34505051357484e-06,1.1744096897493418e-05,1.2486927485717198e-05,4.258260483161681e-06,1.1048438233889922e-05,1.009593170057223e-06,Unknown
0.12902884599999975,7.354745761932718e-06,1.2711362936786272e-05,1.2508094383946186e-05,4.485437322913454e-06,1.1249549494678134e-05,1.0464896598667154e-06,Unknown
0.12954807699999993,7.348039795436836e-06,1.3670555182149334e-05,1.2527628865005536e-05,4.727135384730857e-06,1.141370639096478e-05,1.0827303138942048e-06,Unknown
0.1300673080000001,7.332500459198049e-06,1.4579015778476564e-05,1.2541782488489642e-05,4.952548669272817e-06,1.1509214917764931e-05,1.1193542905974437e-06,Unknown
0.1305865380000002,7.326482972731667e-06,1.538450194193549e-05,1.2548240282152788e-05,5.150912580961068e-06,1.1540356100519806e-05,1.157179949079214e-06,Unknown
0.13110576900000037,7.349793687658198e-06,1.6038823172874477e-05,1.2546933727641445e-05,5.3407253057407135e-06,1.1536013046475832e-05,1.1964250345486157e-06,Unknown
0.13162499999999966,7.414255357472506e-06,1.6507540771230814e-05,1.254160536807181e-05,5.546934721157311e-06,1.1529261841425636e-05,1.236784096864374e-06,Unknown
0.13214423099999983,7.524492756319477e-06,1.6781843088127446e-05,1.2537514174448888e-05,5.771356801152828e-06,1.1548984822721982e-05,1.277418421361564e-06,Unknown
0.132663462,7.68342714146533e-06,1.689036744598781e-05,1.2536780899161044e-05,5.984880431091539e-06,1.1625513075725274e-05,1.3169498890262628e-06,Unknown
0.1331826920000001,7.894132502772381e-06,1.690095731627043e-05,1.2538312008319906e-05,6.157610568113346e-06,1.1791801469142356e-05,1.353870852219676e-06,Unknown
0.13370192300000028,8.154437178178626e-06,1.69037596544112e-05,1.2541704988196553e-05,6.288331038825551e-06,1.2071296225413958e-05,1.387247632701639e-06,Unknown
0.13422115400000045,8.456319118969622e-06,1.698650395091965e-05,1.2548511927627375e-05,6.397520583648511e-06,1.2464909343191365e-05,1.417012992877825e-06,Unknown
0.13474038499999974,8.797385938502033e-06,1.7219229765639195e-05,1.2560325305598853e-05,6.502892594963381e-06,1.2958813871478524e-05,1.4432967110071587e-06,Unknown
0.13525961499999983,9.178425026983282e-06,1.764294788853407e-05,1.2577491429542766e-05,6.608709976708774e-06,1.3542397643217912e-05,1.465531243376926e-06,Unknown
0.135778846,9.585620166768942e-06,1.8255453199604893e-05,1.2600471343600238e-05,6.712429734503535e-06,1.420108466852731e-05,1.482585358595923e-06,Unknown
0.13629807700000018,9.991351410978946e-06,1.901401149490168e-05,1.2633674708244975e-05,6.806593055659693e-06,1.4889460943980072e-05,1.4937489618949363e-06,Unknown
0.13681730800000036,1.0377410934576485e-05,1.9864912636507387e-05,1.269053290433762e-05,6.880179966030246e-06,1.5536414248140024e-05,1.4993414570385744e-06,Unknown
0.13733653800000045,1.0748387231512154e-05,2.077172283533721e-05,1.2787806491740173e-05,6.929556707976873e-06,1.6094706984659816e-05,1.5007044240055284e-06,Unknown
0.13785576899999974,1.111889886320073e-05,2.171481062053474e-05,1.292354717201582e-05,6.961726317553577e-06,1.6569680730599067e-05,1.5002308725305984e-06,Unknown
0.13837499999999991,1.1490179556798947e-05,2.2669768669783307e-05,1.3075548771377796e-05,6.98575516972473e-06,1.6991576600978773e-05,1.5015321324366989e-06,Unknown
0.1388942310000001,1.183956298138549e-05,2.3597706718940467e-05,1.3228850894076654e-05,7.005948889302364e-06,1.7371954413397686e-05,1.5093800046826971e-06,Unknown
0.13941346200000027,1.2137478198660971e-05,2.4463943486270985e-05,1.3386063859567396e-05,7.020449751217441e-06,1.769154530213164e-05,1.529279348230949e-06,Unknown
0.13993269200000036,1.2373564170404665e-05,2.5257054578846616e-05,1.3554500375136082e-05,7.025901418246115e-06,1.793040699497023e-05,1.566428260009566e-06,Unknown
0.14045192299999965,1.2556842701850377e-05,2.5979037579669912e-05,1.3731874740818086e-05,7.025897465948763e-06,1.809513274135252e-05,1.6241019675950448e-06,Unknown
0.14097115399999982,1.269769154469992e-05,2.6620712334220323e-05,1.3902582919782488e-05,7.03131108442098e-06,1.8206977160965483e-05,1.7029853210648665e-06,Unknown
0.141490385,1.2801386758491688e-05,2.7156807803512597e-05,1.4050185727498344e-05,7.052066844120432e-06,1.82797657847742e-05,1.80233929793256e-06,Unknown
0.1420096150000001,1.2873021379717402e-05,2.75686041519467e-05,1.4168263240802048e-05,7.09397693937422e-06,1.831816251315188e-05,1.920842556135477e-06,Unknown
0.14252884600000026,1.2917903120114671e-05,2.7863372385077825e-05,1.4257132957782544e-05,7.165254052816736e-06,1.833010282035373e-05,2.0555930202404133e-06,Unknown
0.14304807700000044,1.293906611372784e-05,2.8066565122617625e-05,1.4317562906741392e-05,7.284249242279959e-06,1.8329922100867017e-05,2.2010108922441444e-06,Unknown
0.14356730799999973,1.2941672132515073e-05,2.820223539197064e-05,1.4351843660724916e-05,7.478320407429632e-06,1.8328279347524535e-05,2.3498455231071548e-06,Unknown
0.14408653799999982,1.2937569712534308e-05,2.8285617140145578e-05,1.4367370259418382e-05,7.767751076281473e-06,1.832804925557893e-05,2.49628629905924e-06,Unknown
0.144605769,1.2942145201279612e-05,2.832885505038408e-05,1.4373417002969982e-05,8.145745147942668e-06,1.8330032483594782e-05,2.6389147795230706e-06,Unknown
0.14512500000000017,1.2970546894969464e-05,2.834539368578196e-05,1.4375392440268986e-05,8.58237386822407e-06,1.8337873129987105e-05,2.781445462347478e-06,Unknown
0.14564423100000035,1.303005515539124e-05,2.83478016515074e-05,1.4374181981506522e-05,9.052047961216723e-06,1.8356464442052862e-05,2.930978477536453e-06,Unknown
0.14616346199999963,1.3111633740212032e-05,2.8347486752670462e-05,1.4369276284294968e-05,9.547585044655132e-06,1.8384553986996243e-05,3.0948774657541173e-06,Unknown
0.14668269199999973,1.3198340439292592e-05,2.835996656852228e-05,1.4363503523649004e-05,1.0063457026947752e-05,1.841331286909905e-05,3.2789388271574943e-06,Unknown
0.1472019229999999,1.3276321158034851e-05,2.8409031175184303e-05,1.4362396984705934e-05,1.0571407449905988e-05,1.8434730203165257e-05,3.4889356909003107e-06,Unknown
0.14772115400000008,1.333609533104411e-05,2.8520940646083592e-05,1.4367828644967591e-05,1.102331447451072e-05,1.844601149268483e-05,3.731725779656679e-06,Unknown
0.14824038500000025,1.3374240486645667e-05,2.8709713165093467e-05,1.4378818827279422e-05,1.1381741188276488e-05,1.844898981409564e-05,4.007515126227074e-06,Unknown
0.14875961500000034,1.3394221301150649e-05,2.8968588752269327e-05,1.4397778100071474e-05,1.1641135177934358e-05,1.844884066911974e-05,4.292933306385946e-06,Unknown
0.14927884599999963,1.3403026805435276e-05,2.9277276235025557e-05,1.4432599318128104e-05,1.182061529336329e-05,1.8452159753240525e-05,4.533976436443557e-06,Unknown
0.1497980769999998,1.3407118304601322e-05,2.9615329719866644e-05,1.4491875661087342e-05,1.1944703601324176e-05,1.8464160777487e-05,4.672914160866942e-06,Unknown
0.15031730799999998,1.3410624074133291e-05,2.996873511642687e-05,1.4576507448633898e-05,1.2031265367222817e-05,1.8480139824541945e-05,4.703432032211444e-06,Unknown
0.15083653800000008,1.3414945189471535e-05,3.0328247207297555e-05,1.4679264799859992e-05,1.2090111339224528e-05,1.8486577787361076e-05,4.709706989182597e-06,Unknown
0.15135576900000025,1.3419386250426611e-05,3.068475552952886e-05,1.4793538108376472e-05,1.212663395269266e-05,1.84836161522941e-05,4.8286574358164295e-06,Unknown
0.15187500000000043,1.3424263514814475e-05,3.102787307029701e-05,1.491906748084854e-05,1.2145284292090782e-05,1.849683831070658e-05,5.128142884381969e-06,Unknown
0.1523942309999997,1.3432642135983808e-05,3.134864475529065e-05,1.5058433899878713e-05,1.2151182977111894e-05,1.855368616913332e-05,5.536954358455688e-06,Unknown
0.1529134619999999,1.3452326131721134e-05,3.1640357799568594e-05,1.520930944445185e-05,1.2151352902958014e-05,1.8659516634365072e-05,5.925762734207642e-06,Unknown
0.15343269199999998,1.3500186396256184e-05,3.189534448612182e-05,1.536146392246474e-05,1.2153290601160012e-05,1.880592719660254e-05,6.214332292631269e-06,Unknown
0.15395192300000016,1.3591421934782072e-05,3.21032637218294e-05,1.5504083824378654e-05,1.2161064697689817e-05,1.8985631661162224e-05,6.395014888653751e-06,Unknown
0.15447115400000033,1.3716642929705933e-05,3.2257143582037806e-05,1.5638127735773654e-05,1.2176538869392625e-05,1.9187169968411945e-05,6.4981887263666855e-06,Unknown
0.15499038499999962,1.3851822053180088e-05,3.236108427547993e-05,1.57688832626476e-05,1.2202104910398908e-05,1.9384496609413388e-05,6.556436755006157e-06,Unknown
0.1555096149999997,1.3991864414982504e-05,3.242708791341951e-05,1.586407217241497e-05,1.2240372409866655e-05,1.9549693955240303e-05,6.590719080189514e-06,Unknown
0.1560288459999999,1.4150731761832402e-05,3.246679463491831e-05,1.58560199099347e-05,1.2293665524876466e-05,1.96761392193308e-05,6.611777750094315e-06,Unknown
0.15654807700000006,1.433215327629788e-05,3.2488413249721624e-05,1.573201912458466e-05,1.2359173344524447e-05,1.9776022478552204e-05,6.6250029587786e-06,Unknown
0.15706730800000024,1.4513539724977505e-05,3.2497253767189944e-05,1.556137617244731e-05,1.2427776981823773e-05,1.9863809377126907e-05,6.633591091056335e-06,Unknown
0.15758653800000033,1.466623722131895e-05,3.2498320410011565e-05,1.5406948282397103e-05,1.2494037696966125e-05,1.9949321571775665e-05,6.639619264955149e-06,Unknown
0.15810576899999962,1.4779904979149025e-05,3.249748020816328e-05,1.5274715172969046e-05,1.2558965971762273e-05,2.0033587110806372e-05,6.644217475292314e-06,Unknown
0.1586249999999998,1.4858456118251366e-05,3.249873619415894e-05,1.5148484935770604e-05,1.2623198767570126e-05,2.010994632517225e-05,6.6477646278500025e-06,Unknown
0.15914423099999997,1.4908085836763988e-05,3.25027365928086e-05,1.503356759052239e-05,1.2687035926871322e-05,2.0172961507426395e-05,6.650325735070964e-06,Unknown
0.15966346200000014,1.4936649541479633e-05,3.250822019541713e-05,1.4954746170607443e-05,1.2750995026287103e-05,2.0221202086839997e-05,6.652043865287878e-06,Unknown
0.16018269200000024,1.4955519082137808e-05,3.2513510294274554e-05,1.4920664596011504e-05,1.2812144164913833e-05,2.0255167939140687e-05,6.653172682515218e-06,Unknown
0.1607019230000004,1.4975814250835653e-05,3.2517652742576686e-05,1.49128251323237e-05,1.2865966155223072e-05,2.0277541185841027e-05,6.653933269013632e-06,Unknown
0.1612211539999997,1.5006446965202172e-05,3.252122220507446e-05,1.4905924981981348e-05,1.290906543323532e-05,2.029211180891521e-05,6.65446425781024e-06,Unknown
0.16174038499999988,1.5052517663440957e-05,3.2526099599433735e-05,1.4886662828744376e-05,1.2940394715958404e-05,2.0301643665439427e-05,6.654847518004213e-06,Unknown
0.16225961499999997,1.51107887701733e-05,3.253446789860724e-05,1.4863058638068373e-05,1.296373633242587e-05,2.0308040438279203e-05,6.6551130112079406e-06,Unknown
0.16277884600000014,1.517050477848673e-05,3.2547022870967475e-05,1.4854262866968703e-05,1.2983341294490164e-05,2.031277812082082e-05,6.655223423955511e-06,Unknown
0.16329807700000032,1.5221904928244516e-05,3.256171344778862e-05,1.485265607292336e-05,1.299993220920039e-05,2.0316386295579505e-05,6.655126957823302e-06,Unknown
0.1638173079999996,1.5259913076515358e-05,3.257569078353929e-05,1.480257240889198e-05,1.3013749818496486e-05,2.03184961097682e-05,6.654875636025294e-06,Unknown
0.1643365379999997,1.5282515609627087e-05,3.2588490199280656e-05,1.4631910924783486e-05,1.302421903833702e-05,2.0318897847303857e-05,6.6546232103535455e-06,Unknown
0.16485576899999987,1.5292737067870024e-05,3.2602168287121784e-05,1.430051425077358e-05,1.3031170161823984e-05,2.0318262454471223e-05,6.654477204056414e-06,Unknown
0.16537500000000005,1.5296698725839968e-05,3.261884565202465e-05,1.3824822386727233e-05,1.3037012895187284e-05,2.0317337836666217e-05,6.654435593642778e-06,Unknown
0.16589423100000023,1.529822121598956e-05,3.263887018075856e-05,1.327515114533702e-05,1.3042510522292907e-05,2.0316207034196685e-05,6.654461224328336e-06,Unknown
0.1664134620000004,1.529822726681803e-05,3.266075536785188e-05,1.274777487031944e-05,1.3047530875883422e-05,2.0314624172637203e-05,6.654541547096192e-06,Unknown
0.1669326919999996,1.5299558543769995e-05,3.268219137662795e-05,1.2321448662014289e-05,1.3053115589805977e-05,2.0313025705168026e-05,6.654675434641437e-06,Unknown
0.16745192299999978,1.531313887968281e-05,3.270112804114926e-05,1.2029739843941268e-05,1.305864499535403e-05,2.031266631650465e-05,6.654845286253347e-06,Unknown
0.16797115399999996,1.5349670379870226e-05,3.271635830032313e-05,1.1867199760957386e-05,1.306236988956146e-05,2.031323298703402e-05,6.655027813508446e-06,Unknown
0.16849038500000013,1.5404708964068137e-05,3.272762205991508e-05,1.1810432526014572e-05,1.3063894869113255e-05,2.031323118044244e-05,6.655226762162026e-06,Unknown
0.16900961500000022,1.546645190969776e-05,3.2735809016896034e-05,1.1830448274162848e-05,1.3064228289654035e-05,2.0312788181445703e-05,6.655472052428263e-06,Unknown
0.1695288460000004,1.5533124977875188e-05,3.274322553693853e-05,1.1897336448457214e-05,1.3064258871107351e-05,2.031273523115987e-05,6.655785790062977e-06,Unknown
0.1700480769999997,1.5613957619306465e-05,3.2752087797595766e-05,1.1990089983961402e-05,1.3064303025441717e-05,2.0314538455931795e-05,6.656152013792182e-06,Unknown
0.17056730799999986,1.5718886527320752e-05,3.276232139049602e-05,1.2102941698459226e-05,1.3065351112285642e-05,2.0320531985142043e-05,6.656516630483536e-06,Unknown
0.17108653799999995,1.584416605342647e-05,3.2772008529085245e-05,1.2235415360208454e-05,1.3069671704954524e-05,2.0331890890407265e-05,6.656824646192275e-06,Unknown
0.17160576900000013,1.5970153914351968e-05,3.27786495424088e-05,1.2381613046844883e-05,1.30775133897878e-05,2.0350010635501608e-05,6.657059217410317e-06,Unknown
0.1721250000000003,1.6082454818036497e-05,3.278122777049711e-05,1.253220984528016e-05,1.3085865978902937e-05,2.037695702082096e-05,6.657242160556386e-06,Unknown
0.1726442309999996,1.618351091400382e-05,3.278222902227419e-05,1.2678812994844688e-05,1.3092934387867956e-05,2.041389885565792e-05,6.6574115776401925e-06,Unknown
0.17316346199999977,1.6282370276406254e-05,3.27838927599412e-05,1.281290468980519e-05,1.309905440990286e-05,2.046148849896429e-05,6.657600170402235e-06,Unknown
0.17368269199999986,1.6383597576847335e-05,3.2784953056102655e-05,1.2925311433796689e-05,1.3106082185912086e-05,2.051592331505818e-05,6.657810870738097e-06,Unknown
0.17420192300000004,1.648070012310525e-05,3.278334206779621e-05,1.3011553364515696e-05,1.3116667405373123e-05,2.0572556551436436e-05,6.658018163689443e-06,Unknown
0.1747211540000002,1.656301989953036e-05,3.277912341832758e-05,1.3076469270090908e-05,1.3128596174112688e-05,2.063536263903645e-05,6.658217611699132e-06,Unknown
0.1752403850000004,1.662908661778361e-05,3.2775004985493745e-05,1.3129541330327802e-05,1.313719324852631e-05,2.070574239871384e-05,6.658443281721112e-06,Unknown
0.1757596149999996,1.668600609261554e-05,3.2773750708289104e-05,1.3176291595318687e-05,1.3142443668775222e-05,2.077400986397426e-05,6.658716066684863e-06,Unknown
0.17627884599999977,1.6740474059316415e-05,3.277542051787968e-05,1.3214756869113016e-05,1.3147030409184053e-05,2.08313834081186e-05,6.659020028180405e-06,Unknown
0.17679807699999994,1.6793156548934104e-05,3.2777742698675666e-05,1.32403568789745e-05,1.3154240351995756e-05,2.0874653669272644e-05,6.659338127749936e-06,Unknown
0.17731730800000012,1.683928375495665e-05,3.277749332141977e-05,1.325303965753362e-05,1.3166071929572423e-05,2.090460714127614e-05,6.659675224142189e-06,Unknown
0.1778365380000002,1.6873799384506898e-05,3.277198032765297e-05,1.3257636335210932e-05,1.3181541769714084e-05,2.0925406260554644e-05,6.6600401342375376e-06,Unknown
0.17835576900000039,1.6894922654410076e-05,3.2761164373136e-05,1.3259721343439333e-05,1.3200085703425789e-05,2.094022454319611e-05,6.660420617396324e-06,Unknown
0.17887499999999967,1.6904352454490225e-05,3.27493125634584e-05,1.3261675672718304e-05,1.322170912201197e-05,2.0950990974113703e-05,6.660790368958482e-06,Unknown
0.17939423099999985,1.6906430138300507e-05,3.274262795159466e-05,1.3261279268522814e-05,1.3242613915424754e-05,2.096122297173728e-05,6.661145359096999e-06,Unknown
0.17991346200000002,1.6905806357243257e-05,3.2743459964570265e-05,1.325573043690219e-05,1.325629892087093e-05,2.0976719981251613e-05,6.661516763565536e-06,Unknown
0.18043269200000012,1.690541045695371e-05,3.274876926466269e-05,1.3245900722136272e-05,1.3260995377148976e-05,2.1006436792338788e-05,6.661938344771657e-06,Unknown
0.1809519230000003,1.6906118040671036e-05,3.275453303537409e-05,1.32346798285511e-05,1.3260854937137774e-05,2.105680170277908e-05,6.662397971982387e-06,Unknown
0.18147115399999958,1.6907355907594543e-05,3.275939075431614e-05,1.3224660600477333e-05,1.325985875929857e-05,2.112370961879348e-05,6.662861623457522e-06,Unknown
0.18199038499999975,1.6908800127862862e-05,3.276465512016957e-05,1.3217750275373312e-05,1.325909071614036e-05,2.1199537950179423e-05,6.663345314328497e-06,Unknown
0.18250961499999985,1.6911226478885177e-05,3.277255463030347e-05,1.3214049318201423e-05,1.3258662791522696e-05,2.1282529395734505e-05,6.663912521822383e-06,Unknown
0.18302884600000002,1.691584926042278e-05,3.2784126867252865e-05,1.3212509618432118e-05,1.3260261638114428e-05,2.1369137838006767e-05,6.664624155286668e-06,Unknown
0.1835480770000002,1.6922784830792835e-05,3.27985168636301e-05,1.3212895379178964e-05,1.3264880636056125e-05,2.144255312135111e-05,6.6654714158178215e-06,Unknown
0.18406730800000037,1.6930987926025738e-05,3.281403188660441e-05,1.321647491832967e-05,1.3270332313501874e-05,2.148844396971974e-05,6.666377149468451e-06,Unknown
0.18458653799999958,1.694094215316402e-05,3.282883727065745e-05,1.322459823911739e-05,1.3275247849584947e-05,2.1516134650675384e-05,6.667299842271727e-06,Unknown
0.18510576899999975,1.6955355178219175e-05,3.284108754387254e-05,1.3236304120870544e-05,1.328155150042005e-05,2.1544909414483784e-05,6.668267963141098e-06,Unknown
0.18562499999999993,1.6977413607760217e-05,3.2849880563290073e-05,1.3249607271958478e-05,1.3293520732154768e-05,2.1580353514837795e-05,6.669324782173095e-06,Unknown
0.1861442310000001,1.700753427216895e-05,3.285613320962789e-05,1.3263838658779128e-05,1.3314303734806917e-05,2.159453500910936e-05,6.670477266777733e-06,Unknown
0.18666346200000028,1.704187016067957e-05,3.286183182660659e-05,1.3279367785025175e-05,1.3341263080432986e-05,2.1600269172793057e-05,6.671692069247797e-06,Unknown
0.18718269200000037,1.7077226085698437e-05,3.2868305698684165e-05,1.3297321475202586e-05,1.3369547283158244e-05,2.1732696075078017e-05,6.6729370885235815e-06,Unknown
0.18770192299999966,1.7111996116360796e-05,3.2874919699197554e-05,1.331881551560436e-05,1.339835846498606e-05,2.2098862563957832e-05,6.674216128788181e-06,Unknown
0.18822115399999984,1.7143474364997605e-05,3.288003016913788e-05,1.334419233622626e-05,1.3429985270153345e-05,2.268821846555121e-05,6.675570792751804e-06,Unknown
0.188740385,1.717054452293728e-05,3.288312327148697e-05,1.3373392162847386e-05,1.3465798893460507e-05,2.3478025617726007e-05,6.677040853066538e-06,Unknown
0.1892596150000001,1.7194540679089664e-05,3.2884788510013426e-05,1.340525578271943e-05,1.3503382755546253e-05,2.4375254265556306e-05,6.678616159487527e-06,Unknown
0.18977884600000028,1.7217955104043924e-05,3.288574399578038e-05,1.3436620914421666e-05,1.353796823979434e-05,2.507230674355241e-05,6.680247513796379e-06,Unknown
0.19029807700000045,1.7243476902062628e-05,3.288647356841645e-05,1.346444325562757e-05,1.3567425981405365e-05,2.532438992545412e-05,6.681872620780225e-06,Unknown
0.19081730799999974,1.7269757483983365e-05,3.288692372379854e-05,1.3489324006481818e-05,1.3593358671359604e-05,2.5330355426363945e-05,6.683394306970874e-06,Unknown
0.19133653799999983,1.7290592450898272e-05,3.288699814749732e-05,1.3514676806852024e-05,1.3618035205149284e-05,2.537528021274951e-05,6.684706269589179e-06,Unknown
0.191855769,1.730184661234708e-05,3.288691380571808e-05,1.3541630779943148e-05,1.3642375938777735e-05,2.5438582543786937e-05,6.685722568625765e-06,Unknown
0.19237500000000018,1.7305092163743493e-05,3.288682776401794e-05,1.3567124176886392e-05,1.3666896505808806e-05,2.545738522348112e-05,6.686353629218401e-06,Unknown
0.19289423100000036,1.730419922039798e-05,3.288716420500577e-05,1.3588011812429986e-05,1.3693251408355005e-05,2.545906643750095e-05,6.686562998732813e-06,Unknown
0.19341346199999965,1.730350650738174e-05,3.288857652040514e-05,1.3604561863840497e-05,1.3722149801488873e-05,2.5460852673464743e-05,6.686446985370191e-06,Unknown
0.19393269199999974,1.7305172424918413e-05,3.289165130220363e-05,1.3619005078430944e-05,1.3749113389232575e-05,2.546915205824322e-05,6.686202420453658e-06,Unknown
0.19445192299999992,1.7306975522216636e-05,3.2897674636993155e-05,1.3633126432446194e-05,1.3767046574927651e-05,2.5482520754174592e-05,6.68598111038761e-06,Unknown
0.1949711540000001,1.7307484014143213e-05,3.2907415286254334e-05,1.3647348504792683e-05,1.3774451633568862e-05,2.5493849256131044e-05,6.685820849569535e-06,Unknown
0.19549038500000027,1.7307649537618558e-05,3.291890280406702e-05,1.3660498458924426e-05,1.3776344942801344e-05,2.550217683232193e-05,6.685771666291079e-06,Unknown
0.19600961500000036,1.7308350362580752e-05,3.292955352464089e-05,1.3670696509903494e-05,1.3778026017474397e-05,2.550763967510412e-05,6.685959185224335e-06,Unknown
0.19652884599999965,1.7310741725293248e-05,3.293898789399463e-05,1.367708260514078e-05,1.3781359814955924e-05,2.5509424128090368e-05,6.686445546019298e-06,Unknown
0.19704807699999982,1.7313321739863906e-05,3.294808486327021e-05,1.3680616584316535e-05,1.378525767184237e-05,2.550895573997527e-05,6.687145061159993e-06,Unknown
0.197567308,1.7313105064471813e-05,3.295773327951704e-05,1.3683001854260703e-05,1.3787730135663816e-05,2.550949208454104e-05,6.687952650580711e-06,Unknown
0.1980865380000001,1.7311304241763338e-05,3.29687044811969e-05,1.36848874038668e-05,1.3788128830940623e-05,2.5510557768445937e-05,6.688873367226508e-06,Unknown
0.19860576900000027,1.7310263766771684e-05,3.298124595270696e-05,1.3685692631042503e-05,1.378771480074066e-05,2.5510251931556496e-05,6.689986607751724e-06,Unknown
0.19912500000000044,1.730974387199504e-05,3.299471965408918e-05,1.3685674744345682e-05,1.378799751286072e-05,2.5510513711824417e-05,6.6913160142914e-06,Unknown
0.19964423099999973,1.730938838069119e-05,3.300797758833817e-05,1.3686562937402748e-05,1.3789565582430128e-05,2.551257184370889e-05,6.692766529005735e-06,Unknown
0.2001634619999999,1.730930569029436e-05,3.302024739405056e-05,1.368918573861228e-05,1.379317000237488e-05,2.551502044770531e-05,6.694233058572616e-06,Sat
0.200682692,1.730928106262618e-05,3.303168509080971e-05,1.369222979083638e-05,1.3801211377823806e-05,2.5517137661305965e-05,6.6957366840431095e-06,Sat
0.20120192300000017,1.730921421263048e-05,3.304300066261006e-05,1.3693974365881598e-05,1.3815416665329312e-05,2.551935346750958e-05,6.697378982420404e-06,Sat
0.20172115400000035,1.730902707221602e-05,3.305458830929376e-05,1.3694286085439934e-05,1.3833137354901253e-05,2.552210979897013e-05,6.699150791138299e-06,Sat
0.20224038499999963,1.7308257889153775e-05,3.3066044490096426e-05,1.3693606560387904e-05,1.3850292259628207e-05,2.552530140644914e-05,6.7008689898156645e-06,Sat
0.20275961499999973,1.7305915749962156e-05,3.30763829670547e-05,1.3692461037862176e-05,1.3867206710463695e-05,2.5528522615063496e-05,6.7023736296398406e-06,Sat
0.2032788459999999,1.730180702782539e-05,3.308469094934174e-05,1.3692838051009504e-05,1.388827626602598e-05,2.553122501011353e-05,6.70368231970258e-06,Sat
0.20379807700000008,1.7297628224836624e-05,3.3090624961605155e-05,1.3694646852715122e-05,1.3916952109754992e-05,2.5532705117674527e-05,6.704901558251406e-06,Sat
0.20431730800000025,1.7295281918346137e-05,3.309437233194097e-05,1.3695110462042992e-05,1.3951205457543124e-05,2.5532962836195368e-05,6.706065032472263e-06,Sat
0.20483653800000035,1.7294592156913033e-05,3.3096806177127506e-05,1.3695095479551428e-05,1.398477413896817e-05,2.5532897435130877e-05,6.707087994114883e-06,Sat
0.20535576899999963,1.7294904632895575e-05,3.309899203640996e-05,1.3697074641382896e-05,1.4014417651599604e-05,2.553289181852034e-05,6.707893060567626e-06,Sat
0.2058749999999998,1.729695160121385e-05,3.310063646107664e-05,1.369969138603004e-05,1.404232435479466e-05,2.553304795764869e-05,6.708521410141233e-06,Sat
0.20639423099999998,1.7299603927222594e-05,3.3101255191486256e-05,1.3701139715458464e-05,1.4071654357704992e-05,2.553334475693328e-05,6.709083800721652e-06,Sat
0.20691346200000016,1.7300431746056184e-05,3.310134691859065e-05,1.370194498481602e-05,1.4102478604839669e-05,2.5533327327885944e-05,6.70968297289856e-06,Sat
0.20743269200000025,1.7301295669741748e-05,3.31011272241622e-05,1.3703771974996036e-05,1.41324333955053e-05,2.55332590904248e-05,6.710368304092708e-06,Sat
0.20795192300000043,1.73078222498107e-05,3.310078527523978e-05,1.3708562582480049e-05,1.4161495885114305e-05,2.553339154893542e-05,6.71111216026687e-06,Sat
0.20847115399999971,1.7324809724648228e-05,3.310065719076114e-05,1.3716869003783646e-05,1.4192974567043864e-05,2.5533376336326107e-05,6.7118674208380815e-06,Sat
0.2089903849999999,1.7349534422216065e-05,3.310065576036764e-05,1.3726680721727356e-05,1.4229979585843125e-05,2.5533300597174387e-05,6.712586872967391e-06,Sat
0.20950961499999998,1.7371790756998164e-05,3.310065003053015e-05,1.3735512402271107e-05,1.427261444600275e-05,2.553345524081944e-05,6.7131815963922975e-06,Sat
0.21002884600000016,1.7387087391016378e-05,3.310066692058197e-05,1.3743255088932608e-05,1.4319277611862095e-05,2.5533573356437104e-05,6.713622724136325e-06,Sat
0.21054807700000033,1.739986483198268e-05,3.310084533419575e-05,1.3750955556178784e-05,1.4370239768179943e-05,2.5533639692119687e-05,6.713994307269264e-06,Sat
0.21106730799999962,1.7416147869349114e-05,3.3101561089697064e-05,1.3758912237719455e-05,1.4426338064598278e-05,2.553349982783117e-05,6.714361320595722e-06,Sat
0.2115865379999997,1.7437275354964493e-05,3.310353036962024e-05,1.3766788037126888e-05,1.4482980544933256e-05,2.5532312417898452e-05,6.714709293414098e-06,Sat
0.2121057689999999,1.7457437639469317e-05,3.3107445094651904e-05,1.377440460602032e-05,1.4530241689758178e-05,2.553111993340321e-05,6.714987345379425e-06,Sat
0.21262500000000006,1.7471608665235525e-05,3.3113108116381014e-05,1.3782419602577408e-05,1.4563673961197392e-05,2.5531374657749605e-05,6.715172754674798e-06,Sat
0.21314423100000024,1.7481099185119964e-05,3.311933735691923e-05,1.3790604535263503e-05,1.4588605206978443e-05,2.553224154831794e-05,6.715297177960686e-06,Sat
0.21366346200000041,1.7490213872292872e-05,3.312484943193163e-05,1.3798091617992456e-05,1.4612299078810664e-05,2.553311123392475e-05,6.715396221097684e-06,Sat
0.21418269199999962,1.750182908121247e-05,3.312904953698954e-05,1.3804860108712031e-05,1.4638753593740622e-05,2.5533959537747968e-05,6.715487742858734e-06,Sat
0.2147019229999998,1.7512769134349923e-05,3.313237082985897e-05,1.3810798694741996e-05,1.4666422030445043e-05,2.553527300753043e-05,6.715555645411952e-06,Sat
0.21522115399999997,1.7516440317668546e-05,3.3135765920722564e-05,1.3816101336000664e-05,1.4689017524736365e-05,2.5538187539712067e-05,6.7155805813403415e-06,Sat
0.21574038500000015,1.7512367869357414e-05,3.313984826060016e-05,1.382129929394296e-05,1.4702656636559024e-05,2.554155605244946e-05,6.7155839858524924e-06,Sat
0.21625961500000024,1.7505953407774342e-05,3.314459384185987e-05,1.382671167713331e-05,1.470937411902443e-05,2.5543409815171936e-05,6.715579514180766e-06,Sat
0.2167788460000004,1.7500354113475412e-05,3.3149736003000154e-05,1.3832297944769045e-05,1.4713249633440072e-05,2.554396737214025e-05,6.715579470906468e-06,Sat
0.2172980769999997,1.7494856068585685e-05,3.315558843032716e-05,1.3836905882058246e-05,1.4716675555479796e-05,2.554392342942815e-05,6.715624580293873e-06,Sat
0.21781730799999988,1.7488497816714184e-05,3.316294993867099e-05,1.383951210524882e-05,1.472033216967213e-05,2.554357089328909e-05,6.715766966558472e-06,Sat
0.21833653799999997,1.7483828333912656e-05,3.317178436924627e-05,1.3840659760337793e-05,1.4723916902032825e-05,2.5544112648871688e-05,6.716018379606433e-06,Sat
0.21885576900000014,1.7484769357104016e-05,3.318101295990664e-05,1.38412909732763e-05,1.4726354532504746e-05,2.554680706263486e-05,6.716317079012161e-06,Sat
0.21937500000000032,1.7489694275224918e-05,3.3190107837190673e-05,1.384194141147971e-05,1.4726932158707412e-05,2.555101328309556e-05,6.716609495081377e-06,Sat
0.2198942309999996,1.7494228952667882e-05,3.319957063299933e-05,1.384254684497817e-05,1.4726450952055997e-05,2.555513530434895e-05,6.716909839128772e-06,Sat
0.22041346199999978,1.7497368371450573e-05,3.320937831349065e-05,1.384290862718808e-05,1.4726612986363845e-05,2.5558531808342275e-05,6.7172527816199466e-06,Sat
0.22093269199999988,1.749942361637207e-05,3.321774948340791e-05,1.3843086566628988e-05,1.4728371861492994e-05,2.5561185102978336e-05,6.717637869347958e-06,Sat
0.22145192300000005,1.750022664834758e-05,3.322279573250189e-05,1.3843267710772271e-05,1.473144481672105e-05,2.5563014053545e-05,6.718038284308401e-06,Sat
0.22197115400000023,1.750007349437474e-05,3.3224897690707304e-05,1.384468401392296e-05,1.473611984928778e-05,2.5564299257639063e-05,6.7184524974669685e-06,Sat
0.2224903850000004,1.7500312250392584e-05,3.322567046956819e-05,1.384700737881868e-05,1.4744516946372929e-05,2.556584624965406e-05,6.71889694495349e-06,Sat
0.2230096149999996,1.7501637027396325e-05,3.322613537573027e-05,1.3847911840172716e-05,1.475897367279913e-05,2.5569072255493908e-05,6.719354619931685e-06,Sat
0.22352884599999978,1.7501772725998016e-05,3.322672600736291e-05,1.3847537757272927e-05,1.4780670886049008e-05,2.5576730068600823e-05,6.71977194845388e-06,Sat
0.22404807699999996,1.749833920883451e-05,3.3227379494594426e-05,1.3847427216789404e-05,1.480782977637214e-05,2.5591576920139905e-05,6.7201391444761206e-06,Sat
0.22456730800000013,1.749110808148522e-05,3.322752023188893e-05,1.3847448703534374e-05,1.483512254674061e-05,2.561265022689717e-05,6.720517113832496e-06,Sat
0.22508653800000022,1.7481676416582733e-05,3.322697653253651e-05,1.3847366404749474e-05,1.4858417334813384e-05,2.563471401715738e-05,6.7209385228557964e-06,Sat
0.2256057690000004,1.7475196174333554e-05,3.3226393252801976e-05,1.3847358243656402e-05,1.487831988580376e-05,2.5652235806028845e-05,6.721368562404446e-06,Sat
0.2261249999999997,1.7478181929060807e-05,3.322614176980527e-05,1.3846989663609036e-05,1.4900151278252543e-05,2.566379332948932e-05,6.721747701260936e-06,Sat
0.22664423099999986,1.7492771779557768e-05,3.322601123487231e-05,1.3846620806301103e-05,1.4931416104640364e-05,2.5673447999365188e-05,6.722027109900371e-06,Sat
0.22716346200000004,1.7513413612109613e-05,3.322566474817494e-05,1.384705288298656e-05,1.4976515637735284e-05,2.568644726795579e-05,6.722221658874016e-06,Sat
0.22768269200000013,1.7531810909301525e-05,3.3225142355122645e-05,1.3848107606592824e-05,1.5034433814204044e-05,2.570476183114301e-05,6.722412625888119e-06,Sat
0.2282019230000003,1.7544673327093273e-05,3.322473513117301e-05,1.3850220151720865e-05,1.509946226205646e-05,2.5727596016210367e-05,6.722664530748027e-06,Sat
0.2287211539999996,1.7554249612503933e-05,3.322410982500552e-05,1.3854243940482927e-05,1.5163391275216368e-05,2.5755224791634515e-05,6.722961455470883e-06,Sat
0.22924038499999977,1.7565968704437583e-05,3.322270120830559e-05,1.3859368194651536e-05,1.5221443846894433e-05,2.5794638061259e-05,6.7232148702074665e-06,Sat
0.22975961499999986,1.7581436931689956e-05,3.322053179113672e-05,1.386357512626952e-05,1.5275611723948896e-05,2.585483317198972e-05,6.723357339914414e-06,Sat
0.23027884600000004,1.759563738105761e-05,3.321818230196812e-05,1.386582409374979e-05,1.533042467549117e-05,2.592770788337471e-05,6.723413617397228e-06,Sat
0.2307980770000002,1.7605640524758797e-05,3.3216248120783246e-05,1.386659620886545e-05,1.5388031154503567e-05,2.5988927182323695e-05,6.72341806431373e-06,Sat
0.2313173080000004,1.761366438029394e-05,3.321487037755248e-05,1.3866417927577008e-05,1.5446221089309936e-05,2.602847495871301e-05,6.723335059127932e-06,Sat
0.2318365379999996,1.7622769412979155e-05,3.321367350850371e-05,1.386521874758458e-05,1.5499189386625226e-05,2.605623494870378e-05,6.723108519633986e-06,Sat
0.23235576899999977,1.763373372432913e-05,3.32120411998501e-05,1.3863295200904522e-05,1.5542958028174672e-05,2.607393235037981e-05,6.722767477959788e-06,Sat
0.23287499999999994,1.764440146809628e-05,3.3209652984101855e-05,1.3862123479185478e-05,1.55795942170747e-05,2.60624431340192e-05,6.722429526676292e-06,Sat
0.23339423100000012,1.7652519902680562e-05,3.320688159395856e-05,1.3862093995307857e-05,1.5613477431680336e-05,2.612051189251221e-05,6.7221622650144966e-06,Sat
0.2339134620000003,1.7657709718282116e-05,3.32044953642277e-05,1.3861875409634215e-05,1.564563480349118e-05,2.651111525521638e-05,6.721922458028602e-06,Sat
0.2344326920000004,1.766042941023773e-05,3.320263504106021e-05,1.3861530077796317e-05,1.5673017114623023e-05,2.720554187792273e-05,6.721632972013677e-06,Sat
0.23495192299999967,1.7661168392827774e-05,3.3200546825006575e-05,1.3861741013100403e-05,1.56907989276731e-05,2.7812542651992983e-05,6.7212828674130905e-06,Sat
0.23547115399999985,1.766119442878836e-05,3.319736250725916e-05,1.386202558456588e-05,1.5696733394282814e-05,2.8152555251081625e-05,6.720959534016726e-06,Sat
0.23599038500000002,1.766321492064923e-05,3.319256745209443e-05,1.3862026648624492e-05,1.5695049955258525e-05,2.834267532759784e-05,6.720744510394986e-06,Sat
0.23650961500000012,1.767096089161086e-05,3.318633420200479e-05,1.386203332577102e-05,1.5693124916709836e-05,2.850908584401645e-05,6.720625929903722e-06,Sat
0.2370288460000003,1.7685962363960038e-05,3.318002032312976e-05,1.386202223420814e-05,1.5694386120517588e-05,2.867807906784295e-05,6.720557516808375e-06,Sat
0.23754807699999958,1.770233156902458e-05,3.3175292344206365e-05,1.3861624431798655e-05,1.5696262259964586e-05,2.879088303907024e-05,6.720528196464011e-06,Sat
0.23806730799999976,1.771136792081519e-05,3.317212234055597e-05,1.3861222311256162e-05,1.5694614249953347e-05,2.8816682674464173e-05,6.7205527183036735e-06,Sat
0.23858653799999985,1.771207968222173e-05,3.3169164638225023e-05,1.3861052504239664e-05,1.568870868817504e-05,2.8810680925723955e-05,6.72063295813295e-06,Sat
0.23910576900000002,1.7709286698895316e-05,3.316570597652186e-05,1.3860767576215608e-05,1.567977052741869e-05,2.8823608598166656e-05,6.7207558528756055e-06,Sat
0.2396250000000002,1.770602632148794e-05,3.3161901802301206e-05,1.3861625838688532e-05,1.566857394639452e-05,2.885152573819816e-05,6.720912591613662e-06,Sat
0.24014423100000037,1.7700682676946636e-05,3.3158589397958855e-05,1.3863827109147264e-05,1.5657149357491757e-05,2.887490233752289e-05,6.721090455581538e-06,Sat
0.24066346199999966,1.768617001498811e-05,3.3156211884841804e-05,1.3864823653131606e-05,1.564782645091436e-05,2.8885838701277972e-05,6.721264132779354e-06,Sat
0.24118269199999975,1.7658722684752755e-05,3.3152971037390745e-05,1.3864828999482325e-05,1.564089023737422e-05,2.888701316045414e-05,6.721414956823749e-06,Sat
0.24170192299999993,1.7624892510448955e-05,3.3146431827582926e-05,1.3865345151909315e-05,1.563532657914939e-05,2.8888335564943334e-05,6.721554924061508e-06,Sat
0.2422211540000001,1.7588627932648517e-05,3.313725090609442e-05,1.3865395014741722e-05,1.5628986336304766e-05,2.890054663049723e-05,6.721713637671646e-06,Sat
0.24274038500000028,1.754441886945993e-05,3.3128809200587334e-05,1.3865420221939836e-05,1.5620709028297045e-05,2.892576922925189e-05,6.721921002003763e-06,Sat
0.24325961500000037,1.748481551331665e-05,3.3123330217068866e-05,1.3866381037112276e-05,1.5613599563861335e-05,2.8958051755606605e-05,6.722202903441495e-06,Sat
0.24377884599999966,1.7408973880169454e-05,3.312062093044822e-05,1.386693211519392e-05,1.5611562793250954e-05,2.899104092087648e-05,6.722560024798577e-06,Sat
0.24429807699999984,1.7333107467714467e-05,3.3119620798220195e-05,1.3866799572922475e-05,1.5615091809565577e-05,2.9017716069563708e-05,6.722968854215571e-06,Sat
0.244817308,1.7276564825497034e-05,3.3119571810059154e-05,1.3867126314565952e-05,1.562305047047823e-05,2.9020290339612324e-05,6.723374370894261e-06,Sat
0.2453365380000001,1.723716809330956e-05,3.312026696945212e-05,1.3867953975640263e-05,1.5634969493808225e-05,2.897725945963796e-05,6.723687720444173e-06,Sat
0.24585576900000028,1.719977254859972e-05,3.312110966608618e-05,1.3868737919735794e-05,1.565156624373832e-05,2.8909055599023565e-05,6.7238611274816e-06,Sat
0.24637500000000045,1.7155502537277797e-05,3.311992711483474e-05,1.3868326171195284e-05,1.5674830305214594e-05,2.889421848091314e-05,6.723918740484311e-06,Sat
0.24689423099999974,1.7108580158665452e-05,3.3114014574704496e-05,1.386519135527081e-05,1.570434137275014e-05,2.897678960668701e-05,6.723867318077768e-06,Sat
0.24741346199999992,1.7071621003813046e-05,3.310284663111099e-05,1.3859595662092476e-05,1.5734860150809352e-05,2.9088345888448397e-05,6.723618617430789e-06,Sat
0.247932692,1.7052469984169653e-05,3.3087895261065195e-05,1.3853387558280344e-05,1.576259468654705e-05,2.9136293765853382e-05,6.723041475736376e-06,Sat
0.24845192300000019,1.7050628702318953e-05,3.306906473384226e-05,1.3846928139656418e-05,1.578985560993574e-05,2.9108133886265247e-05,6.722078151546711e-06,Sat
0.24897115400000036,1.7063351477192886e-05,3.3042753677675905e-05,1.38382246057839e-05,1.582075167910757e-05,2.9040528234012707e-05,6.720729726677767e-06,Sat
0.24949038499999965,1.708619373590507e-05,3.300368620556648e-05,1.3826504036231978e-05,1.585365743699216e-05,2.8957463364691174e-05,6.71893918892578e-06,Sat
0.25000961499999974,1.7110509936157506e-05,3.294820705674926e-05,1.3812883629767397e-05,1.5879805582972503e-05,2.8860864960276216e-05,6.71658779827869e-06,Sat
0.2505288459999999,1.7128620171896936e-05,3.287369197065585e-05,1.3799075818135612e-05,1.589149290435907e-05,2.87602459904874e-05,6.713620916665869e-06,Sat
0.2510480770000001,1.7139748454708305e-05,3.2773294335597425e-05,1.3787690924991132e-05,1.5888030237842426e-05,2.868580250860151e-05,6.710121122734002e-06,Sat
0.25156730800000027,1.7147203077297414e-05,3.263363230405507e-05,1.377948750237512e-05,1.5873930978529384e-05,2.8648009378487723e-05,6.706187498990426e-06,Sat
0.25208653800000036,1.7152875022651312e-05,3.244135513113205e-05,1.3771877345047816e-05,1.585493889666699e-05,2.8623091602474856e-05,6.701792561958873e-06,Sat
0.25260576899999965,1.715569018337765e-05,3.219336293932213e-05,1.3761052995244971e-05,1.5833018961113603e-05,2.8586668077290063e-05,6.69686640134192e-06,Sat
0.2531249999999998,1.715528250398307e-05,3.1896744538328445e-05,1.3744155700943652e-05,1.5804868780077142e-05,2.8529041352814203e-05,6.691476562555507e-06,Sat
0.253644231,1.7154674842799174e-05,3.155851376595458e-05,1.3721424257691534e-05,1.5766473888999552e-05,2.845313625038916e-05,6.6858296355786646e-06,Sat
0.2541634620000002,1.7157678230321628e-05,3.118165532409961e-05,1.3696305798059484e-05,1.571839954435051e-05,2.837684208294841e-05,6.680081588860446e-06,Sat
0.25468269200000027,1.716532680688047e-05,3.0773257939367915e-05,1.3673011682937618e-05,1.566841379454955e-05,2.8324047645917853e-05,6.674191703390075e-06,Sat
0.25520192300000044,1.717386381081368e-05,3.035336969764633e-05,1.365441159682793e-05,1.5624130875608387e-05,2.830612175041719e-05,6.667966891412703e-06,Sat
0.25572115399999973,1.7176544559954695e-05,2.995336968311972e-05,1.3642305399231595e-05,1.558216672791303e-05,2.831841878542384e-05,6.661216417454557e-06,Sat
0.2562403849999999,1.7166787449499427e-05,2.960695382378605e-05,1.3637371918308708e-05,1.553225312679131e-05,2.835092418292553e-05,6.653879696161408e-06,Sat
0.256759615,1.7140081535984428e-05,2.934266805777024e-05,1.3637577079960547e-05,1.546751232938806e-05,2.839534355555293e-05,6.646058612658639e-06,Sat
0.25727884600000017,1.7094505694062077e-05,2.917713085327421e-05,1.363954378718158e-05,1.53899669021845e-05,2.843876754105277e-05,6.637973660163263e-06,Sat
0.25779807700000035,1.7027966030024503e-05,2.910502142492077e-05,1.364119319953977e-05,1.5312269582481577e-05,2.845337749499962e-05,6.629922157078005e-06,Sat
0.25831730799999963,1.693627723413219e-05,2.909351614774257e-05,1.3641624875127116e-05,1.5247284559815312e-05,2.840872053143826e-05,6.622263947931124e-06,Sat
0.2588365379999997,1.6816222857285228e-05,2.909148953715757e-05,1.3639809313690684e-05,1.519622020400402e-05,2.8295177160406333e-05,6.61530650242525e-06,Sat
0.2593557689999999,1.6667652155899153e-05,2.9045497962289832e-05,1.3634268024625167e-05,1.5151972236315206e-05,2.812158965851025e-05,6.609140111120612e-06,Sat
0.2598750000000001,1.6490171010602373e-05,2.890975667140464e-05,1.3623704291214524e-05,1.5107660128015528e-05,2.7896268766394254e-05,6.603741524479041e-06,Sat
0.26039423100000025,1.6282175287807074e-05,2.865307365585392e-05,1.3608023252544288e-05,1.5060585478099982e-05,2.7619886401563228e-05,6.5992447251091e-06,Sat
0.26091346200000043,1.6048071149884232e-05,2.826595765893292e-05,1.3586622296290216e-05,1.501275605042257e-05,2.7294857920563333e-05,6.595942171293951e-06,Sat
0.26143269199999963,1.5801516357280315e-05,2.776033298733695e-05,1.3553964480448712e-05,1.4970304186230028e-05,2.6940824831675197e-05,6.594026081186063e-06,Sat
0.2619519229999998,1.555385345205855e-05,2.715628390562056e-05,1.3496814182531212e-05,1.493997817681896e-05,2.6593655784419343e-05,6.593431425372078e-06,Sat
0.262471154,1.5302518926880216e-05,2.64659488892818e-05,1.3401159160582084e-05,1.4923150409304289e-05,2.628043888751243e-05,6.59386860390962e-06,Sat
0.26299038500000016,1.5037013812605257e-05,2.5693250935461608e-05,1.3269125321868002e-05,1.4916102727728816e-05,2.6001588829713836e-05,6.594835605133015e-06,Sat
0.26350961500000025,1.4756506386537065e-05,2.4850395969888376e-05,1.3119249940993538e-05,1.4915910095680926e-05,2.574318462218752e-05,6.595534682033661e-06,Sat
0.26402884600000043,1.448097601629431e-05,2.396821054887418e-05,1.2964557770565974e-05,1.4922678856075148e-05,2.5501777991404605e-05,6.594813979379432e-06,Sat
0.2645480769999997,1.4238976629023536e-05,2.3082269287418275e-05,1.2801548313075031e-05,1.4935795972358866e-05,2.529260369320825e-05,6.591242579507184e-06,Sat
0.2650673079999999,1.404140688044455e-05,2.221202053586145e-05,1.2621103911824898e-05,1.4950685353639194e-05,2.513164365561128e-05,6.583369153350848e-06,Sat
0.265586538,1.3881066532118764e-05,2.136472150677261e-05,1.2424809159131297e-05,1.4962303619987316e-05,2.501784562812474e-05,6.570067701302358e-06,Sat
0.26610576900000016,1.3751800850399516e-05,2.0561765484313145e-05,1.2229998230029369e-05,1.4968125856055124e-05,2.4939354518240606e-05,6.5506455158983314e-06,Sat
0.26662500000000033,1.36531261835005e-05,1.985019047829373e-05,1.2056263713919786e-05,1.4967525913517175e-05,2.4887808443554052e-05,6.524554175070788e-06,Sat
0.2671442309999996,1.358419363749568e-05,1.92756224062757e-05,1.1912363164879198e-05,1.4959535816648333e-05,2.4860092427957566e-05,6.491165134154875e-06,Sat
0.2676634619999998,1.3541890062868558e-05,1.884795226792336e-05,1.1799772227430391e-05,1.4937471157909724e-05,2.485037792465824e-05,6.450147423468702e-06,Sat
0.2681826919999999,1.3523494858992382e-05,1.854447324495592e-05,1.1720272432070145e-05,1.4888078532009833e-05,2.484900039870809e-05,6.402173196790213e-06,Sat
0.26870192300000006,1.3523971434782885e-05,1.8337778411286896e-05,1.16733542115796e-05,1.4795892001821448e-05,2.4849351035795947e-05,6.349038885919069e-06,Sat
0.26922115400000024,1.3529149224375414e-05,1.8209326943341555e-05,1.165040469086967e-05,1.464871438572084e-05,2.4849382645770577e-05,6.292723687560073e-06,Sat
0.2697403850000004,1.3520676920869013e-05,1.814318492408154e-05,1.1639746221736026e-05,1.4446310318768253e-05,2.4847918056801374e-05,6.233950262378126e-06,Sat
0.2702596149999996,1.3489202335106326e-05,1.811989192398427e-05,1.16342100981381e-05,1.4199939046121148e-05,2.484208382638832e-05,6.171273120927838e-06,Sat
0.2707788459999998,1.343651432998859e-05,1.8118750372063183e-05,1.1631514316352112e-05,1.3916378919415098e-05,2.4828546885570307e-05,6.101242108351426e-06,Sat
0.27129807699999997,1.3369530175408607e-05,1.812020771491271e-05,1.163120117693394e-05,1.3590062524366258e-05,2.48081597791629e-05,6.019373161419809e-06,Sat
0.27181730800000015,1.32973248688927e-05,1.8100510130108653e-05,1.1630821610550757e-05,1.321721995483151e-05,2.478694376471508e-05,5.92079031744554e-06,Sat
0.27233653800000024,1.3229838083289436e-05,1.8023767996464418e-05,1.1626253229810503e-05,1.281614556020983e-05,2.4770978784671624e-05,5.799230267405678e-06,Sat
0.2728557690000004,1.3175713894258463e-05,1.784806579196602e-05,1.1615988837918304e-05,1.2429757492274182e-05,2.4762393701688107e-05,5.645784607688338e-06,Sat
0.2733749999999997,1.3140443681673528e-05,1.7545716050338925e-05,1.1599958065210936e-05,1.210225662918641e-05,2.475999624802433e-05,5.453243461746376e-06,Sat
0.2738942309999999,1.3124186613795004e-05,1.7116918288874506e-05,1.1574096568541742e-05,1.1853001913060191e-05,2.476033024324915e-05,5.231326834861846e-06,Sat
0.27441346200000005,1.3121589972229992e-05,1.65838894010873e-05,1.1528324686346208e-05,1.1674557646163267e-05,2.475765777876145e-05,5.023739143250614e-06,Sat
0.27493269200000015,1.3126182586762503e-05,1.5972373506507653e-05,1.1451796591781691e-05,1.1549660394268934e-05,2.4747586437344027e-05,4.894769368450685e-06,Sat
0.2754519230000003,1.3132999268862142e-05,1.5299002688198104e-05,1.1342553591827845e-05,1.1465038485569028e-05,2.473405043187732e-05,4.865651940967712e-06,Sat
0.2759711539999996,1.3138145153432034e-05,1.4573154127431969e-05,1.120859348778352e-05,1.1411702130081743e-05,2.472728806605862e-05,4.860047706806493e-06,Sat
0.2764903849999998,1.3140064008954142e-05,1.380608735067e-05,1.105767614057274e-05,1.1380053204298668e-05,2.472728810961337e-05,4.742534473116378e-06,Sat
0.2770096149999999,1.3138762510699843e-05,1.3015482742661334e-05,1.0888850636773838e-05,1.1362650984486144e-05,2.4715206557674112e-05,4.41761078133994e-06,Sat
0.27752884600000005,1.3132363848499168e-05,1.2221118941718044e-05,1.0695935673667918e-05,1.135652664942492e-05,2.46706761562397e-05,3.893516150581602e-06,Sat
0.2780480770000002,1.3113367909491251e-05,1.144349775433452e-05,1.048029586987825e-05,1.1356346348741002e-05,2.45890041065382e-05,3.272077411461825e-06,Sat
0.2785673080000004,1.306488298975081e-05,1.0711367414899226e-05,1.0255609228860252e-05,1.1354652106089844e-05,2.4475232908222302e-05,2.684757274530425e-06,Sat
0.2790865379999996,1.297125373743592e-05,1.0068840434712796e-05,1.0035422701320067e-05,1.134867080338125e-05,2.4333961751149845e-05,2.2216493254742674e-06,Sat
0.2796057689999998,1.2840215862569163e-05,9.561684400005714e-06,9.821730397029662e-06,1.1336001410691506e-05,2.417391896066968e-05,1.9006606134901335e-06,Sat
0.28012499999999996,1.2694226759562315e-05,9.203518424888149e-06,9.610365470094932e-06,1.1311020172437531e-05,2.4015612439733777e-05,1.6909006822444951e-06,Sat
0.28064423100000013,1.253882244395042e-05,8.969418331623258e-06,9.404593672945195e-06,1.1269663850931767e-05,2.3881315669923107e-05,1.5540457555189408e-06,Sat
0.2811634620000003,1.2359216895779731e-05,8.825922366511381e-06,9.217314941751713e-06,1.1211068944660084e-05,2.3777378171118748e-05,1.4641120996621905e-06,Sat
0.2816826920000004,1.2148101750270764e-05,8.75323190664877e-06,9.056831912708896e-06,1.1138796875976222e-05,2.369417284277236e-05,1.405602679758244e-06,Sat
0.2822019229999997,1.192993714588351e-05,8.737920119330301e-06,8.917663143058496e-06,1.1060460208938663e-05,2.3619065257081052e-05,1.367254639649158e-06,Sat
0.28272115399999986,1.1741670152868354e-05,8.754442972243201e-06,8.790308519495411e-06,1.098247351364185e-05,2.3545479109998256e-05,1.340186176145868e-06,Sat
0.28324038500000004,1.1598550420186747e-05,8.771075648813277e-06,8.676732093725241e-06,1.0908183527620714e-05,2.3474057792732465e-05,1.319120060210344e-06,Sat
0.28375961500000013,1.1497389478241708e-05,8.771866450666234e-06,8.589854090494159e-06,1.0837731512872637e-05,2.3409363580989733e-05,1.3025688985175842e-06,Sat
0.2842788460000003,1.143279302430547e-05,8.758455328695151e-06,8.532412591392228e-06,1.0767269402833624e-05,2.3355311978658493e-05,1.290685723142352e-06,Sat
0.2847980769999996,1.1395985823819724e-05,8.737872727453725e-06,8.490316744127346e-06,1.0693749535606711e-05,2.331355947216097e-05,1.282983816765932e-06,Sat
0.28531730799999977,1.1372450473683818e-05,8.715916006916034e-06,8.450646305511527e-06,1.0620084445249851e-05,2.3284316300282515e-05,1.2781319574755648e-06,Sat
0.28583653799999986,1.13481429706676e-05,8.694010766309263e-06,8.412697421734521e-06,1.0553673085407872e-05,2.3265246461180144e-05,1.2749401112674473e-06,Sat
0.28635576900000004,1.1311942556092264e-05,8.6698356223292e-06,8.385933703241905e-06,1.0500794548519786e-05,2.325273001687882e-05,1.2727323096106226e-06,Sat
0.2868750000000002,1.1258191556735658e-05,8.639248631368122e-06,8.37546869238503e-06,1.0462130744477396e-05,2.3244408026243865e-05,1.271111836829544e-06,Sat
0.2873942310000004,1.118972068906583e-05,8.594895786131684e-06,8.374136451500445e-06,1.0434071015123554e-05,2.323865535465353e-05,1.2698668628553436e-06,Sat
0.2879134619999997,1.111543533378621e-05,8.532734860767238e-06,8.374397222327183e-06,1.0413270334839656e-05,2.323426255243553e-05,1.2690665756848662e-06,Sat
0.28843269199999977,1.1046652082314852e-05,8.4598319788703e-06,8.374331240950111e-06,1.039769944501623e-05,2.3231239940195003e-05,1.2689102079094886e-06,Sat
0.28895192299999994,1.0995383031183023e-05,8.387163746693996e-06,8.37428709627113e-06,1.038526469725992e-05,2.323031166260269e-05,1.2693374980738815e-06,Sat
0.2894711540000001,1.096874201837328e-05,8.319206235446194e-06,8.374589618723766e-06,1.037479116164954e-05,2.32308772727376e-05,1.2700520136211257e-06,Sat
0.2899903850000003,1.0962212570851296e-05,8.253157794383797e-06,8.372737740786913e-06,1.0366520142014268e-05,2.3231294754546083e-05,1.2707868171950182e-06,Sat
0.2905096150000004,1.0965394876847806e-05,8.1843508580554e-06,8.364337627766087e-06,1.0360955427416743e-05,2.323125166197081e-05,1.271309814276783e-06,Sat
0.2910288459999997,1.0971470137504513e-05,8.110349076311814e-06,8.346708286574468e-06,1.0359347423030274e-05,2.323143066255833e-05,1.2714319465294914e-06,Sat
0.29154807699999985,1.0977874150495164e-05,8.031657608782725e-06,8.317993776122813e-06,1.0360348837423226e-05,2.323158258738361e-05,1.271082769414533e-06,Sat
0.292067308,1.0979725479561196e-05,7.951068334216717e-06,8.274391072135666e-06,1.035874474736497e-05,2.3230911256012816e-05,1.270314603977121e-06,Sat
0.2925865380000001,1.0962368220706236e-05,7.871363338761365e-06,8.211923553925554e-06,1.035357113935724e-05,2.322951702282432e-05,1.269289767752938e-06,Sat
0.2931057690000003,1.0912991087042296e-05,7.793535166126107e-06,8.131987628181084e-06,1.0348888905289384e-05,2.3228661469639847e-05,1.2681851085859231e-06,Sat
0.2936249999999996,1.0838199075260366e-05,7.716299244357636e-06,8.040104419562902e-06,1.0347021117987986e-05,2.3229766588085258e-05,1.267052358659097e-06,Sat
0.29414423099999976,1.0753143754467254e-05,7.635717198130958e-06,7.937466990549331e-06,1.0347824080442682e-05,2.323187791048704e-05,1.265902290590894e-06,Sat
0.29466346199999993,1.0660429222257203e-05,7.54996729809886e-06,7.818982126106397e-06,1.0349965986603316e-05,2.3232119817766288e-05,1.2649537612578608e-06,Sat
0.295182692,1.0547651914820017e-05,7.463647778007983e-06,7.675878832435256e-06,1.0351490901323965e-05,2.322945742937905e-05,1.264598615320336e-06,Sat
0.2957019230000002,1.0398357984568798e-05,7.381166778524294e-06,7.498134558554912e-06,1.035072391716753e-05,2.3223851272151305e-05,1.264961019696933e-06,Sat
0.2962211540000004,1.0210326905306424e-05,7.300622433171999e-06,7.282857600679609e-06,1.0345502272393792e-05,2.3214244555581032e-05,1.265702061831469e-06,Sat
0.29674038499999966,1.0012076688906065e-05,7.218711386760533e-06,7.037129935617758e-06,1.033528449269075e-05,2.3199009891399693e-05,1.266434990635209e-06,Sat
0.29725961499999976,9.839368139515717e-06,7.137151049829525e-06,6.768530355286134e-06,1.032408026179073e-05,2.317589575921201e-05,1.2670773186854108e-06,Sat
0.29777884599999993,9.690934930069791e-06,7.0628469955343455e-06,6.483452590861261e-06,1.031565544605673e-05,2.3143404277859675e-05,1.2677293042899395e-06,Sat
0.2982980770000001,9.537875827463734e-06,7.003235525533987e-06,6.197001025686115e-06,1.0308816743281346e-05,2.3101175930505672e-05,1.268390307871656e-06,Sat
0.2988173080000003,9.367686902547444e-06,6.962068796436128e-06,5.935890632295181e-06,1.0299604968372583e-05,2.3049808043432945e-05,1.2688430080050326e-06,Sat
0.2993365380000004,9.198450224038195e-06,6.938940716096507e-06,5.721848337681731e-06,1.0285559136134805e-05,2.299154176023072e-05,1.268958956399152e-06,Sat
0.29985576899999966,9.054683797259638e-06,6.9307208975528816e-06,5.552352082279743e-06,1.027033000340381e-05,2.2929058007593588e-05,1.2689847621198571e-06,Sat
0.30037499999999984,8.94146108830652e-06,6.931805508497532e-06,5.407351190752969e-06,1.0260202278707842e-05,2.2864620025198836e-05,1.26923938278796e-06,Sat
0.300894231,8.844577960814223e-06,6.933965107259221e-06,5.2721528600527886e-06,1.0255508675141426e-05,2.2802271765150432e-05,1.2696421023992887e-06,Sat
0.3014134620000002,8.746253581717987e-06,6.929987889088248e-06,5.150568907655467e-06,1.025168946578016e-05,2.274898711401596e-05,1.2697562884340323e-06,Sat
0.3019326920000003,8.64445809370786e-06,6.919269019395013e-06,5.054578293862446e-06,1.0243948483467672e-05,2.2711145297156525e-05,1.2693646029603007e-06,Sat
0.30245192300000046,8.560686388397587e-06,6.906445817296334e-06,4.985763489347402e-06,1.0230237799634083e-05,2.2692349243813735e-05,1.2686726449548989e-06,Sat
0.30297115399999974,8.517150498570015e-06,6.893472407866812e-06,4.933820698200863e-06,1.0211787702544126e-05,2.2693124262707974e-05,1.2680741573436664e-06,Sat
0.3034903849999999,8.512188536119045e-06,6.876867778357078e-06,4.887644734850391e-06,1.01896896182696e-05,2.270385391032162e-05,1.2679257084888268e-06,Sat
0.304009615,8.530773461406449e-06,6.849587473275439e-06,4.846457369363318e-06,1.016427882786034e-05,2.270720292294032e-05,1.2681969767298178e-06,Sat
0.3045288460000002,8.56312155900447e-06,6.804439034287155e-06,4.820563910601743e-06,1.0139670471013824e-05,2.2698588002917392e-05,1.2683807875183178e-06,Sat
0.30504807700000036,8.604734859555115e-06,6.742428237461696e-06,4.8186688210297525e-06,1.012377424227173e-05,2.26884543022064e-05,1.2678748953659223e-06,Sat
0.30556730799999965,8.64852335221518e-06,6.674948517828034e-06,4.834136448250613e-06,1.011904596051648e-05,2.2679969706178783e-05,1.2664276881936124e-06,Sat
0.30608653799999974,8.68083855998567e-06,6.61263261444497e-06,4.85100541351787e-06,1.0120919459710752e-05,2.266317185371285e-05,1.264326207511479e-06,Sat
0.3066057689999999,8.69264393314321e-06,6.556331722877579e-06,4.861483262655485e-06,1.0124754560463576e-05,2.263058969768795e-05,1.26203876114001e-06,Sat
0.3071250000000001,8.690963833366141e-06,6.499649713264675e-06,4.866850043517622e-06,1.01281426863162e-05,2.2581675954074824e-05,1.259653808036532e-06,Sat
0.30764423100000027,8.68779138736575e-06,6.434823813024547e-06,4.868028054436795e-06,1.0130409847254704e-05,2.2516896636144044e-05,1.2568050406893892e-06,Sat
0.30816346200000044,8.685260227287028e-06,6.358539684451252e-06,4.862420890640458e-06,1.0130386786933976e-05,2.2442144357629365e-05,1.2530623363126067e-06,Sat
0.30868269199999965,8.680177675619776e-06,6.27572960122634e-06,4.847029593546084e-06,1.012904046138785e-05,2.2376142142442453e-05,1.2485185428206323e-06,Sat
0.3092019229999998,8.673215845878205e-06,6.195228089647374e-06,4.821537869254931e-06,1.0131158062385172e-05,2.233432566998752e-05,1.243689492439223e-06,Sat
0.309721154,8.667681489321499e-06,6.125689101759888e-06,4.7880347106867375e-06,1.0136835994522065e-05,2.230895971167389e-05,1.2387800290624123e-06,Sat
0.3102403850000002,8.665663420350789e-06,6.073809793073242e-06,4.750003339243463e-06,1.0139379880375334e-05,2.2282123701616432e-05,1.233561100559526e-06,Sat
0.31075961500000027,8.662784006641982e-06,6.039104088592055e-06,4.709852807112933e-06,1.013133031647019e-05,2.2248134940477345e-05,1.2278036131223844e-06,Sat
0.31127884600000044,8.64508511015266e-06,6.014171748360331e-06,4.666235137589307e-06,1.0109555264367286e-05,2.2233610940244075e-05,1.2215873302760212e-06,Sat
0.31179807699999973,8.600408082590273e-06,5.991368331198494e-06,4.616250495611626e-06,1.0078437791751036e-05,2.2226942981850608e-05,1.2153402057282068e-06,Sat
0.3123173079999999,8.533483380583208e-06,5.967751400203623e-06,4.55897323252878e-06,1.0044904235445785e-05,2.209725663605074e-05,1.209406329186113e-06,Sat
0.312836538,8.465093803544767e-06,5.946899236683434e-06,4.49598005415754e-06,1.001066900951672e-05,2.1731306853437024e-05,1.2034748974313309e-06,Sat
0.3133557690000002,8.413840914050374e-06,5.935026140115378e-06,4.4269817488807216e-06,9.972492450547626e-06,2.111511496349391e-05,1.1968660857862942e-06,Sat
0.31387500000000035,8.379456316277506e-06,5.934430248666958e-06,4.345850064711373e-06,9.927826106764886e-06,2.023313398363768e-05,1.1892231275751304e-06,Sat
0.31439423099999964,8.34854308000852e-06,5.943042013792231e-06,4.250336243088567e-06,9.879346332577092e-06,1.914275166344222e-05,1.1806663839744366e-06,Sat
0.3149134619999998,8.31108916882838e-06,5.956195697518389e-06,4.150256904044914e-06,9.83325774946985e-06,1.821993506284959e-05,1.17156673620318e-06,Sat
0.3154326919999999,8.264157599598474e-06,5.967157603468306e-06,4.057996765319921e-06,9.793141952875543e-06,1.7867691137374325e-05,1.162251953229088e-06,Sat
0.3159519230000001,8.213910777443341e-06,5.972678049210634e-06,3.97785162304422e-06,9.757759168203836e-06,1.7859694472288497e-05,1.1529389467010234e-06,Sat
0.31647115400000025,8.176835545857196e-06,5.975513385781417e-06,3.90063862417582e-06,9.72417718398335e-06,1.779633446359748e-05,1.1439873769088989e-06,Sat
0.31699038500000043,8.16064485829368e-06,5.978103610360649e-06,3.811835876929842e-06,9.689957442088914e-06,1.770607457863075e-05,1.1361985723277405e-06,Sat
0.31750961499999963,8.155784968231475e-06,5.981311494263661e-06,3.715225868265088e-06,9.653544439257912e-06,1.7679824241649117e-05,1.1304528551388598e-06,Sat
0.3180288459999998,8.15334771480493e-06,5.983126761102701e-06,3.629826090464436e-06,9.614347462062836e-06,1.76785181552863e-05,1.1269223084162894e-06,Sat
0.318548077,8.150542280732539e-06,5.976830552754381e-06,3.56211527248757e-06,9.572464865488652e-06,1.767653845386997e-05,1.125057003851073e-06,Sat
0.31906730800000016,8.146685773944965e-06,5.960392998901981e-06,3.5039520076272587e-06,9.532915112062024e-06,1.766377186102244e-05,1.12420113412066e-06,Sat
0.31958653800000025,8.145223575232317e-06,5.9372022576955484e-06,3.4467309575749977e-06,9.505075265102058e-06,1.7642267780647176e-05,1.1239472659323474e-06,Sat
0.32010576900000043,8.14729383728454e-06,5.907841977364975e-06,3.3870556376190253e-06,9.491365752985955e-06,1.762469651445867e-05,1.124009982976693e-06,Sat
0.3206249999999997,8.150924613290222e-06,5.873563587059704e-06,3.3278701647683005e-06,9.485564990133002e-06,1.7613691881574117e-05,1.123801528839036e-06,Sat
0.3211442309999999,8.156878425838514e-06,5.83875425724259e-06,3.2759640507846573e-06,9.48173082021294e-06,1.7605912026122293e-05,1.1223806219433028e-06,Sat
0.32166346200000007,8.168037052057161e-06,5.805059367252489e-06,3.234806439077212e-06,9.477048743275976e-06,1.760149719034675e-05,1.1192875259376487e-06,Sat
0.32218269200000016,8.19010369892277e-06,5.76958766034036e-06,3.2021933312413134e-06,9.471943913615242e-06,1.7602042228684747e-05,1.115015177464305e-06,Sat
0.32270192300000033,8.223628987996504e-06,5.727617894918688e-06,3.174332409450813e-06,9.469802272873667e-06,1.7603746807860033e-05,1.1101683246647678e-06,Sat
0.3232211539999996,8.26270720975378e-06,5.674866283762504e-06,3.149436077090697e-06,9.473075801051536e-06,1.760449396822292e-05,1.10466982852492e-06,Sat
0.3237403849999998,8.310134937005251e-06,5.609703455318303e-06,3.130496995431798e-06,9.48084727958443e-06,1.760619265378076e-05,1.0980222281409442e-06,Sat
0.3242596149999999,8.377180527759784e-06,5.535461531059696e-06,3.1180800049813183e-06,9.489295648506856e-06,1.760757964284881e-05,1.090130844779784e-06,Sat
0.32477884600000007,8.460762223401047e-06,5.45930742337695e-06,3.1083250274831893e-06,9.494874242377856e-06,1.760897077225777e-05,1.0816579559641952e-06,Sat
0.32529807700000024,8.538634950820756e-06,5.386637605853825e-06,3.0990044602876253e-06,9.496510896299618e-06,1.761264803021301e-05,1.073196799554776e-06,Sat
0.3258173080000004,8.593952008735635e-06,5.317251952153167e-06,3.0902299146709487e-06,9.49348091066607e-06,1.761638924782358e-05,1.064354302831866e-06,Sat
0.3263365379999996,8.625568869035124e-06,5.247578336270319e-06,3.0870499241306062e-06,9.485088518567616e-06,1.761631559386276e-05,1.0542504630691706e-06,Sat
0.3268557689999998,8.638781683830407e-06,5.175846721622228e-06,3.091316954503374e-06,9.472372473056869e-06,1.761228823987924e-05,1.0429857648790845e-06,Sat
0.32737499999999997,8.640896072779717e-06,5.105756233952266e-06,3.0998628896000954e-06,9.457813653159416e-06,1.7607368895037282e-05,1.0319427023593843e-06,Sat
0.32789423100000015,8.641294173560104e-06,5.045713904761144e-06,3.1106649988107664e-06,9.44198395088158e-06,1.7603691923721285e-05,1.0222919773831195e-06,Sat
0.3284134620000003,8.646215571678057e-06,5.003171812730959e-06,3.11595857184514e-06,9.421666603803676e-06,1.760292460802403e-05,1.0139791954842163e-06,Sat
0.3289326920000004,8.6579475120721e-06,4.977789046898881e-06,3.113537367614705e-06,9.392506341477631e-06,1.761463344318605e-05,1.0062170256935502e-06,Sat
0.3294519229999997,8.678926658108342e-06,4.961280096286414e-06,3.1138216565243603e-06,9.354538281869884e-06,1.767976052473431e-05,9.9861255910233e-07,Sat
0.3299711539999999,8.710888450585989e-06,4.945984859686936e-06,3.115787622965825e-06,9.313445290753882e-06,1.7880685535607107e-05,9.91719140674841e-07,Sat
0.33049038500000005,8.748840519355617e-06,4.931053436742696e-06,3.110900452855061e-06,9.2736149269285e-06,1.821916826878591e-05,9.861423009084548e-07,Sat
0.33100961500000015,8.777612036953256e-06,4.920155293370479e-06,3.102937157905691e-06,9.233823615383506e-06,1.849771485371135e-05,9.816152716855002e-07,Sat
0.3315288460000003,8.786616455497956e-06,4.915608411185322e-06,3.09716070617084e-06,9.191118380972018e-06,1.856417985871846e-05,9.773500528077586e-07,Sat
0.3320480769999996,8.781091953628828e-06,4.914986574072089e-06,3.0928338503805656e-06,9.14600366554796e-06,1.8576239538699853e-05,9.727696669574345e-07,Sat
0.3325673079999998,8.768446272886795e-06,4.915256052286248e-06,3.0846595582529227e-06,9.101088338432894e-06,1.8734224864642525e-05,9.677944183659635e-07,Sat
0.3330865379999999,8.747110580405026e-06,4.91708500262386e-06,3.063213899985449e-06,9.056034899038142e-06,1.896578706897669e-05,9.62603437003566e-07,Sat
0.33360576900000005,8.709943318006648e-06,4.922593653074649e-06,3.0262117846111337e-06,9.006388104089747e-06,1.9113691433938043e-05,9.57369491074486e-07,Sat
0.3341250000000002,8.659883219817432e-06,4.930692854097603e-06,2.9821306860306536e-06,8.94717408306736e-06,1.916079441782734e-05,9.523514750209752e-07,Sat
0.3346442310000004,8.616033553035965e-06,4.937162727179741e-06,2.940239119362545e-06,8.877907851943788e-06,1.916649293980637e-05,9.479579371760198e-07,Sat
0.3351634619999997,8.589735815892583e-06,4.939715183419947e-06,2.9026922770284696e-06,8.801056926250424e-06,1.916618902696854e-05,9.444084062293913e-07,Sat
0.3356826919999998,8.572699537844657e-06,4.938281440673577e-06,2.865246586178832e-06,8.716137389600946e-06,1.9166407605430557e-05,9.414839028940708e-07,Sat
0.33620192299999996,8.547651406265925e-06,4.930785397878049e-06,2.82744796783432e-06,8.622134786321772e-06,1.916649874916497e-05,9.388937384216882e-07,Sat
0.33672115400000013,8.506553462665764e-06,4.912917187169782e-06,2.792753655563939e-06,8.527011908595148e-06,1.9166374414902168e-05,9.366236936134288e-07,Sat
0.3372403850000003,8.464559680819352e-06,4.882388016855796e-06,2.7571953640372616e-06,8.44686930612462e-06,1.916584010804917e-05,9.34821436262812e-07,Sat
0.3377596150000004,8.440044676639885e-06,4.841827033126627e-06,2.716109882643241e-06,8.389417136540625e-06,1.916481966048754e-05,9.335511109422654e-07,Sat
0.3382788459999997,8.430345753358784e-06,4.798133834730698e-06,2.67427881944391e-06,8.346976112001357e-06,1.9164022786813236e-05,9.326697138764632e-07,Sat
0.33879807699999986,8.420023279638485e-06,4.758963974268408e-06,2.636880069820832e-06,8.306934549946898e-06,1.916306184248709e-05,9.31940123088904e-07,Sat
0.33931730800000004,8.398570385264634e-06,4.728352969170784e-06,2.603253031438062e-06,8.261705902687502e-06,1.9160905117813916e-05,9.31293169238694e-07,Sat
0.33983653800000013,8.36849200832812e-06,4.704880248334142e-06,2.57173301921417e-06,8.214492493813851e-06,1.9157223085126533e-05,9.309116195311528e-07,Sat
0.3403557690000003,8.341036608228405e-06,4.68289884357525e-06,2.542703210040277e-06,8.176619220568122e-06,1.915305159544379e-05,9.308951979933582e-07,Sat
0.3408749999999996,8.32381010677362e-06,4.6560239750098334e-06,2.517680234752342e-06,8.155117628132226e-06,1.9151140972871523e-05,9.31081722542324e-07,Sat
0.34139423099999977,8.316276499946599e-06,4.6212617373312e-06,2.495520824166194e-06,8.147107407580065e-06,1.9153115327187027e-05,9.313322370376314e-07,Sat
0.34191346199999995,8.313540489616582e-06,4.579049946302339e-06,2.4714070151379405e-06,8.145927538194326e-06,1.915853149929413e-05,9.316022787858386e-07,Sat
0.34243269200000004,8.309647703185404e-06,4.529010302886326e-06,2.446853396539294e-06,8.146554685153606e-06,1.9166416752986226e-05,9.316789395404216e-07,Sat
0.3429519230000002,8.301268628870654e-06,4.468936780493016e-06,2.4312711190374027e-06,8.147178026804305e-06,1.917463348503566e-05,9.310533675537932e-07,Sat
0.3434711540000004,8.289298581139288e-06,4.400551748472126e-06,2.4262990635457468e-06,8.149765326189571e-06,1.917936900576547e-05,9.294780538590316e-07,Sat
0.3439903849999997,8.27603432704822e-06,4.330477579554097e-06,2.425490649524303e-06,8.157497966948128e-06,1.917831804142571e-05,9.273898544205684e-07,Sat
0.34450961499999977,8.264976878430316e-06,4.260822603640498e-06,2.425141488154264e-06,8.169080044757473e-06,1.917360651472659e-05,9.25252195394072e-07,Sat
0.34502884599999994,8.262085992908334e-06,4.186874929099684e-06,2.426062169637563e-06,8.178204135959605e-06,1.9168773850304214e-05,9.230337178158536e-07,Sat
0.3455480770000001,8.267684342854192e-06,4.108467413636702e-06,2.429145434389488e-06,8.180978955258454e-06,1.916562085903634e-05,9.205112179470032e-07,Sat
0.3460673080000003,8.272356546191737e-06,4.040593449072799e-06,2.431049466285415e-06,8.178235893825366e-06,1.916467131531758e-05,9.176479768580908e-07,Sat
0.3465865380000004,8.271727361588246e-06,4.000478389746541e-06,2.4288245393847792e-06,8.172415486815096e-06,1.916513666225623e-05,9.145700540119934e-07,Sat
0.3471057689999997,8.272041988021312e-06,3.985822774487657e-06,2.4198786244176773e-06,8.1646779086373e-06,1.9165042308251243e-05,9.112972358567518e-07,Sat
0.34762499999999985,8.274614578535721e-06,3.982764015181514e-06,2.4062499290244467e-06,8.151703840392528e-06,1.9162837349419292e-05,9.077158233709172e-07,Sat
0.348144231,8.275035894954255e-06,3.98291075291804e-06,2.397674826431846e-06,8.127835685591664e-06,1.9158075442098676e-05,9.038236339512528e-07,Sat
0.3486634620000002,8.275046262854685e-06,3.983080660004111e-06,2.3966423660518094e-06,8.09005472693428e-06,1.914850602424412e-05,8.998308204743592e-07,Sat
0.3491826920000003,8.279606955002612e-06,3.981799318000311e-06,2.396864069706962e-06,8.04262637200654e-06,1.912956210127781e-05,8.959402559343922e-07,Sat
0.3497019229999996,8.292020774547899e-06,3.980685573880814e-06,2.396573990813202e-06,7.995789500403073e-06,1.910116909268826e-05,8.921690745689019e-07,Sat
0.35022115399999976,8.308871622841397e-06,3.981686567338345e-06,2.396806520123628e-06,7.955163157405066e-06,1.907035629749504e-05,8.884103553044945e-07,Sat
0.35074038499999993,8.31412390470803e-06,3.98476610072513e-06,2.3968699022270965e-06,7.917011188102357e-06,1.9043556756368097e-05,8.845666732518454e-07,Sat
0.351259615,8.296846229338498e-06,3.988853109111719e-06,2.3967598132222253e-06,7.87245368985469e-06,1.9021216228096524e-05,8.806132721158728e-07,Sat
0.3517788460000002,8.266737518841835e-06,3.991001700720804e-06,2.3955410190881283e-06,7.810833516518511e-06,1.900048731903549e-05,8.765649016282579e-07,Sat
0.3522980770000004,8.233557625465689e-06,3.991177909156043e-06,2.3934226552871683e-06,7.723642999814558e-06,1.8977880944777837e-05,8.724120404045407e-07,Sat
0.35281730799999966,8.192237041070822e-06,3.99041888808893e-06,2.390456083056251e-06,7.610303840040821e-06,1.8949998508278265e-05,8.6799327070277e-07,Sat
0.35333653799999976,8.139604956369393e-06,3.9868543742650855e-06,2.381031319948248e-06,7.480403968222286e-06,1.8914366974797717e-05,8.629613558654185e-07,Sat
0.35385576899999993,8.079720011319306e-06,3.982673854632961e-06,2.3595050763967958e-06,7.34878904049375e-06,1.8867147506913067e-05,8.571220789531644e-07,Sat
0.3543750000000001,8.015734496986668e-06,3.981456618368022e-06,2.331264106447897e-06,7.225052081850429e-06,1.879959666488728e-05,8.508197978774252e-07,Sat
0.3548942310000003,7.956610322780243e-06,3.98158278251852e-06,2.3144357241239622e-06,7.107450711888791e-06,1.8704247414408147e-05,8.448103695647395e-07,Sat
0.35541346200000046,7.914605115811441e-06,3.981613215301343e-06,2.3233179377091724e-06,6.98820777795981e-06,1.8594054640103333e-05,8.396706547747863e-07,Sat
0.35593269199999966,7.89072467300095e-06,3.982987839741011e-06,2.3512309490401265e-06,6.861927558607372e-06,1.8500121381266436e-05,8.355176773219902e-07,Sat
0.35645192299999984,7.874849288544281e-06,3.98614990751745e-06,2.379060101113285e-06,6.731046732452015e-06,1.8431848040756373e-05,8.321751336316769e-07,Sat
0.356971154,7.855197360107435e-06,3.990919201882171e-06,2.396667685016745e-06,6.60572879301215e-06,1.837155252271337e-05,8.293355401750614e-07,Sat
0.3574903850000002,7.83107229951226e-06,3.997540072580091e-06,2.4065949888731868e-06,6.494463038492015e-06,1.83214773563806e-05,8.267848573040568e-07,Sat
0.3580096150000003,7.810615862047137e-06,4.004448903086889e-06,2.411696380505607e-06,6.397336797390847e-06,1.8318913785436048e-05,8.245436046407166e-07,Sat
0.35852884600000046,7.793459470175208e-06,4.008117258398499e-06,2.412343917261987e-06,6.313051579513647e-06,1.822501403912345e-05,8.226836098776145e-07,Sat
0.35904807699999974,7.77501657750853e-06,4.00556918509149e-06,2.4121403892317864e-06,6.244695054285485e-06,1.7643210112552442e-05,8.212488785835278e-07,Sat
0.3595673079999999,7.756764577958296e-06,3.99839572212611e-06,2.4131127862026148e-06,6.193075281736091e-06,1.653880151394181e-05,8.20399132011992e-07,Sat
0.360086538,7.74133931754714e-06,3.991659312100124e-06,2.4131549625623637e-06,6.153601386595168e-06,1.547194894847982e-05,8.203041805203074e-07,Sat
0.3606057690000002,7.728426649217157e-06,3.987050451406704e-06,2.412542673345137e-06,6.122349280291621e-06,1.481264455043206e-05,8.207246238009293e-07,Sat
0.36112500000000036,7.713948135933095e-06,3.981486336751695e-06,2.4126033991444464e-06,6.096840283623042e-06,1.4418446816419526e-05,8.210768975290513e-07,Sat
0.36164423099999965,7.688859400911442e-06,3.971066644721766e-06,2.414938166925386e-06,6.073722109678582e-06,1.4068893715213192e-05,8.210317064097949e-07,Sat
0.3621634619999998,7.645590816017993e-06,3.953161910495137e-06,2.422729753828246e-06,6.0523785418851095e-06,1.3711063082845049e-05,8.205966942613363e-07,Sat
0.3626826919999999,7.595464101726941e-06,3.929460269863129e-06,2.4343759792732564e-06,6.038352468347807e-06,1.34729297054867e-05,8.198225978715939e-07,Sat
0.3632019230000001,7.561154804631832e-06,3.908901246029551e-06,2.4448473376368044e-06,6.036304270764255e-06,1.3428369655643524e-05,8.187083312771095e-07,Sat
0.36372115400000027,7.5529498237131375e-06,3.900376746785669e-06,2.456409284364723e-06,6.040867247990472e-06,1.34499017592397e-05,8.173017392519712e-07,Sat
0.36424038500000044,7.564888121811261e-06,3.904218160693738e-06,2.4745189796972e-06,6.044409014062814e-06,1.3421535376180169e-05,8.157403710257816e-07,Sat
0.36475961499999965,7.577587194279592e-06,3.91286493050016e-06,2.489247106883284e-06,6.046328164154668e-06,1.3358656558267052e-05,8.141263689730671e-07,Sat
0.3652788459999998,7.57691400854387e-06,3.912616927663142e-06,2.491323255652783e-06,6.048989486828284e-06,1.3310645486777606e-05,8.125719220650564e-07,Sat
0.365798077,7.571784470865101e-06,3.89356663420116e-06,2.491482907489497e-06,6.056713371356924e-06,1.3296088259091697e-05,8.114912750348155e-07,Sat
0.3663173080000002,7.571832010467539e-06,3.862962595750128e-06,2.4925638660234684e-06,6.071331859786963e-06,1.3308932073188397e-05,8.112368836339772e-07,Sat
0.36683653800000027,7.569460668215146e-06,3.83627575858545e-06,2.4896650172231903e-06,6.084347518245278e-06,1.3327173783287604e-05,8.112894943966832e-07,Sat
0.36735576900000044,7.562956580707838e-06,3.8203584160042045e-06,2.4887812180206024e-06,6.088336706929707e-06,1.3324530327183492e-05,8.107783730345821e-07,Sat
0.36787499999999973,7.559479177754425e-06,3.813521663612606e-06,2.488606490241477e-06,6.086399520662384e-06,1.328838189732768e-05,8.093800702929223e-07,Sat
0.3683942309999999,7.558469344396424e-06,3.812891535818964e-06,2.4838401585119853e-06,6.083555111271574e-06,1.3218535339000352e-05,8.071569494120267e-07,Sat
0.3689134620000001,7.554907674303107e-06,3.816401402564048e-06,2.480350191082959e-06,6.079694945401173e-06,1.3116069718953968e-05,8.042519962406507e-07,Sat
0.3694326920000002,7.539626037570062e-06,3.822251287946593e-06,2.481125034433908e-06,6.068292709532903e-06,1.2992511746589148e-05,8.007172371909311e-07,Sat
0.36995192300000035,7.50972289981773e-06,3.826875429957125e-06,2.4806548175799018e-06,6.043083066863268e-06,1.2892899853716566e-05,7.964200984837105e-07,Sat
0.37047115399999964,7.479017615083178e-06,3.823555290019328e-06,2.4763190605863425e-06,6.004213829804847e-06,1.2869638260620064e-05,7.912426912157837e-07,Sat
0.3709903849999998,7.457066198786778e-06,3.8110908881452494e-06,2.471447671627656e-06,5.949822326021729e-06,1.2870647488889049e-05,7.852096880883832e-07,Sat
0.3715096149999999,7.437571982144659e-06,3.796613651902725e-06,2.467442664289824e-06,5.875813288615393e-06,1.270660051694984e-05,7.783654167630719e-07,Sat
0.3720288460000001,7.4136543055180195e-06,3.78483028213166e-06,2.4634089207718373e-06,5.789728744151554e-06,1.2260644392184826e-05,7.70796195297523e-07,Sat
0.37254807700000026,7.384680839883378e-06,3.777105030369539e-06,2.4620082118984425e-06,5.705866246704086e-06,1.1678092483159605e-05,7.62970635376832e-07,Sat
0.37306730800000043,7.349481942233543e-06,3.7746121304599503e-06,2.462598885296025e-06,5.628082519571585e-06,1.1202174172371167e-05,7.558068060012924e-07,Sat
0.37358653799999963,7.30302083352644e-06,3.773993488254706e-06,2.4622975023504105e-06,5.54922678618246e-06,1.0904093453198933e-05,7.500668261753606e-07,Sat
0.3741057689999998,7.236634241241837e-06,3.772337147864074e-06,2.462920157937109e-06,5.4568494288624745e-06,1.0717275427832416e-05,7.458541887797348e-07,Sat
0.374625,7.154255640391917e-06,3.7725004853220113e-06,2.4605715723201382e-06,5.345328885785373e-06,1.0602724271005716e-05,7.428297130021531e-07,Sat
0.37514423100000016,7.079470363537137e-06,3.776561045069508e-06,2.45499645860028e-06,5.231569863088342e-06,1.0593342861310242e-05,7.405542505150518e-07,Sat
0.37566346200000034,7.022698569259511e-06,3.7822935955377816e-06,2.4557448071547733e-06,5.138075470855182e-06,1.0714568034062354e-05,7.385680852124672e-07,Sat
0.37618269200000043,6.973255533052592e-06,3.7853536231212136e-06,2.460251414920956e-06,5.065532043640059e-06,1.0926937734452865e-05,7.365160895039122e-07,Sat
0.3767019229999997,6.923083920330068e-06,3.7850054961318096e-06,2.4607351821899733e-06,5.000060526562814e-06,1.1202229232628107e-05,7.344070414964561e-07,Sat
0.3772211539999999,6.872373062121281e-06,3.786587147154642e-06,2.458465843314672e-06,4.934155921668856e-06,1.1540956857833235e-05,7.326916053096637e-07,Sat
0.37774038500000007,6.829130488084141e-06,3.792299784954626e-06,2.458286781607062e-06,4.872339075167997e-06,1.1911443563926556e-05,7.318472474873653e-07,Sat
0.37825961500000016,6.80139894874505e-06,3.797574648659988e-06,2.4625610132463776e-06,4.8211849499274605e-06,1.227036872208194e-05,7.319722262726722e-07,Sat
0.37877884600000034,6.784188549934224e-06,3.799661252458645e-06,2.4678095078659177e-06,4.7772134093008335e-06,1.2586633886653707e-05,7.32708764062246e-07,Sat
0.3792980769999996,6.764801230409441e-06,3.799610922682762e-06,2.4707760415703843e-06,4.727414546774708e-06,1.2782846769658271e-05,7.334246146667146e-07,Sat
0.3798173079999998,6.739294050274413e-06,3.799267146643147e-06,2.471212600542198e-06,4.659453726950636e-06,1.2771591919190715e-05,7.337169398831808e-07,Sat
0.3803365379999999,6.717283950893264e-06,3.798494281325495e-06,2.4720349011176767e-06,4.579165841652457e-06,1.2826795900962902e-05,7.335775599383204e-07,Sat
0.38085576900000007,6.705627424357278e-06,3.796938365379849e-06,2.477987157277345e-06,4.513941963568323e-06,1.3589594440966863e-05,7.331539071022683e-07,Sat
0.38137500000000024,6.701019143906168e-06,3.799468250791073e-06,2.487274347475846e-06,4.480057548469051e-06,1.4900519359670748e-05,7.326761159744022e-07,Sat
0.3818942310000004,6.699398400333606e-06,3.806763247721608e-06,2.48974005001121e-06,4.4651081244852525e-06,1.5803941438799423e-05,7.32340070274053e-07,Sat
0.3824134619999997,6.693922573050236e-06,3.8107253048550456e-06,2.481081755296623e-06,4.453236603388491e-06,1.6011755249602353e-05,7.320932203104268e-07,Sat
0.3829326919999998,6.678014564708548e-06,3.8095712153523854e-06,2.4698195716351604e-06,4.441109243380503e-06,1.595078468322939e-05,7.315606742736244e-07,Sat
0.383451923,6.658568617921907e-06,3.806816918842725e-06,2.460746969799149e-06,4.432843793403939e-06,1.5903324369374442e-05,7.298844337615699e-07,Sat
0.38397115400000015,6.64678404273406e-06,3.7981367612904073e-06,2.453540332322074e-06,4.43278631234772e-06,1.592147059262895e-05,7.260396178239403e-07,Sat
0.3844903850000003,6.643466731495738e-06,3.780883438619527e-06,2.4504322195032845e-06,4.438264466386352e-06,1.6038087018578423e-05,7.199864931727928e-07,Sat
0.3850096150000004,6.6457297528132966e-06,3.764691654654654e-06,2.4492182535373207e-06,4.443325299473969e-06,1.6224888519024478e-05,7.127781868386092e-07,Sat
0.3855288459999997,6.651533952081104e-06,3.758408561883064e-06,2.4479082016149767e-06,4.4471207827355104e-06,1.6426079952394828e-05,7.05271079460921e-07,Sat
0.3860480769999999,6.653890212748329e-06,3.76188070424422e-06,2.4494847328484285e-06,4.451630608667928e-06,1.661667567434577e-05,6.975109400497752e-07,Sat
0.38656730800000005,6.647891742498641e-06,3.77169290603412e-06,2.451502077151546e-06,4.45411101048331e-06,1.6782542807889666e-05,6.893255602170906e-07,Sat
0.38708653800000015,6.63997165002725e-06,3.781098823488563e-06,2.4503142361820943e-06,4.448747306813706e-06,1.69030162803037e-05,6.807802605220192e-07,Sat
0.3876057690000003,6.636833998938451e-06,3.783264472833268e-06,2.448335218331236e-06,4.4354140852044425e-06,1.6969236996033925e-05,6.718672082042746e-07,Sat
