Time,Rectus Femoris,Vastus Medialis,Vastus Lateralis,Bicep Femoris,Tibialis,Gastrocnemius Medialis,Trimmed Time
5.4135,3.4666589768111e-06,4.266779139882844e-06,3.410500102920744e-06,6.529731714477729e-06,9.209031668056496e-05,7.741264951711061e-07,0.0
5.414019231,3.464399061651978e-06,4.2901277190941e-06,3.423176689865405e-06,6.575909513203616e-06,9.205502038303696e-05,7.827522413643003e-07,0.0005192310000001754
5.414538462,3.4602571344428266e-06,4.314646234129835e-06,3.424838042510838e-06,6.630464907300602e-06,9.204517815819366e-05,7.951369738008478e-07,0.0010384620000003508
5.415057692,3.4492898471597825e-06,4.327817753108744e-06,3.4181510471603803e-06,6.692631765234406e-06,9.206852720408096e-05,8.096003089873822e-07,0.0015576920000004435
5.415576923,3.433723405657862e-06,4.329382137106053e-06,3.4114140772790218e-06,6.751833158870808e-06,9.209967781977756e-05,8.237423257084933e-07,0.0020769229999997307
5.416096154,3.41943276668322e-06,4.32612392013804e-06,3.408863973106971e-06,6.799757997413963e-06,9.205793600759828e-05,8.361167648745888e-07,0.002596153999999906
5.416615385,3.407713270658986e-06,4.323053165525735e-06,3.408363104092231e-06,6.833075755789835e-06,9.184463535216533e-05,8.463881850938341e-07,0.0031153850000000816
5.417134615,3.397779836083683e-06,4.323487866915558e-06,3.4070415515436205e-06,6.851860155572629e-06,9.158563147983176e-05,8.546968371188399e-07,0.0036346150000001742
5.417653846,3.389583297251067e-06,4.333687869068913e-06,3.4040289944364183e-06,6.8644292735621525e-06,9.147216910791105e-05,8.614437362487819e-07,0.00415384600000035
5.418173077,3.3828435802798395e-06,4.358343727684835e-06,3.4043182895934875e-06,6.879861677048754e-06,9.146154245697796e-05,8.6729129835384e-07,0.004673076999999637
5.418692308,3.3779778666901663e-06,4.390600651935927e-06,3.4153492974376e-06,6.8984426492146575e-06,9.145521296314398e-05,8.728942379019278e-07,0.005192307999999812
5.419211538,3.375656512254373e-06,4.416494041990819e-06,3.433040099392849e-06,6.915946171925007e-06,9.151188774132264e-05,8.784462129109035e-07,0.005711537999999905
5.419730769,3.3750367883329567e-06,4.428829359861725e-06,3.446743157409804e-06,6.929064047582704e-06,9.167244824696855e-05,8.834294008320503e-07,0.00623076900000008
5.42025,3.374287788596917e-06,4.430117686890689e-06,3.453847491118257e-06,6.937403703796303e-06,9.173890693963125e-05,8.870935525513475e-07,0.006750000000000256
5.420769231,3.3730585470803445e-06,4.42707382723796e-06,3.457617631201691e-06,6.942900165232949e-06,9.155301971672776e-05,8.892667346400844e-07,0.007269231000000431
5.421288462,3.372071438715481e-06,4.425428777407977e-06,3.465346436092717e-06,6.946675818345626e-06,9.136482210129366e-05,8.903139607884403e-07,0.0077884619999997184
5.421807692,3.370691670996128e-06,4.425362707436373e-06,3.477872930956937e-06,6.947629121378019e-06,9.138848008757768e-05,8.905212845232185e-07,0.008307691999999811
5.422326923,3.3657785440885104e-06,4.42366998807568e-06,3.483221255401877e-06,6.943937935520509e-06,9.111539756194998e-05,8.899869026330504e-07,0.008826922999999987
5.422846154,3.35811778159557e-06,4.420861270912398e-06,3.480119973781968e-06,6.935863794699678e-06,8.999397840370639e-05,8.89166535534555e-07,0.009346154000000162
5.423365385,3.3640824710931856e-06,4.4196860169522525e-06,3.4785222229188475e-06,6.925968535426182e-06,8.85866351462587e-05,8.892517036810931e-07,0.009865385000000337
5.423884615,3.3989094539779127e-06,4.419543702616199e-06,3.481270262336225e-06,6.917158975208757e-06,8.779933379834201e-05,8.917002780117338e-07,0.01038461500000043
5.424403846,3.448838419572384e-06,4.419684997944588e-06,3.486657883167794e-06,6.912249347426067e-06,8.754418670202614e-05,8.974862735806478e-07,0.010903845999999717
5.424923077,3.4871731371576634e-06,4.424503629142079e-06,3.491363299344576e-06,6.911898871564881e-06,8.738740433116944e-05,9.069791546674496e-07,0.011423076999999893
5.425442308,3.505214536839595e-06,4.439972986161587e-06,3.490133756176646e-06,6.912735975413923e-06,8.713774457896023e-05,9.204586539138026e-07,0.011942308000000068
5.425961538,3.510989736906944e-06,4.46688399639076e-06,3.4806619947039085e-06,6.912263845770678e-06,8.63024965435695e-05,9.384393118318472e-07,0.01246153800000016
5.426480769,3.512126578540948e-06,4.502363812474999e-06,3.4651819104246584e-06,6.911547566841889e-06,8.478516493669199e-05,9.608773638381812e-07,0.012980769000000336
5.427,3.512158873596661e-06,4.546926398366549e-06,3.4504311906396584e-06,6.911542478773768e-06,8.37087995649778e-05,9.85621733520466e-07,0.013499999999999623
5.427519231,3.5148706656856666e-06,4.6067360216677055e-06,3.443277118679683e-06,6.9127019398885285e-06,8.362800901742496e-05,1.0087660230251671e-06,0.014019230999999799
5.428038462,3.5258622253585025e-06,4.689511480832108e-06,3.4419003833446728e-06,6.915843311173865e-06,8.319590018322694e-05,1.0275356888648943e-06,0.014538461999999974
5.428557692,3.547387004290252e-06,4.798840536700888e-06,3.441448214805482e-06,6.921374565114503e-06,8.154056456122447e-05,1.0417713410848094e-06,0.015057692000000067
5.429076923,3.570188475779769e-06,4.930187218009484e-06,3.442468811530044e-06,6.92891460159803e-06,7.971406390398988e-05,1.0527052401098255e-06,0.015576923000000242
5.429596154,3.5843372456103644e-06,5.066349639625342e-06,3.4440987519253267e-06,6.93804639143766e-06,7.882707139551538e-05,1.0616690911484844e-06,0.016096154000000418
5.430115385,3.5917031722507263e-06,5.177725433206271e-06,3.4430792892134386e-06,6.949334197682294e-06,7.897961097512098e-05,1.0694185420544526e-06,0.016615384999999705
5.430634615,3.5978889780152203e-06,5.239718392286198e-06,3.440635987938528e-06,6.963703423488481e-06,7.955672263489728e-05,1.075970809576873e-06,0.017134614999999798
5.431153846,3.6042216537290017e-06,5.252779331135929e-06,3.4391465387643e-06,6.979460581514025e-06,7.967053088204243e-05,1.0811901658221062e-06,0.017653845999999973
5.431673077,3.606910011379824e-06,5.235482184661509e-06,3.439004766801007e-06,6.992312797089968e-06,7.903373153975823e-05,1.085049260587856e-06,0.01817307700000015
5.432192308,3.604561914410107e-06,5.204698655694126e-06,3.440482728866057e-06,7.00004334165546e-06,7.806091835743632e-05,1.08750647175025e-06,0.018692308000000324
5.432711538,3.6024553147009737e-06,5.172499360134389e-06,3.442531630275414e-06,7.003271539792961e-06,7.746685899630599e-05,1.0886488187628352e-06,0.019211538000000417
5.433230769,3.6026908610089286e-06,5.148894057288718e-06,3.443368230849286e-06,7.003464555334704e-06,7.748501438011367e-05,1.0888644895073462e-06,0.019730768999999704
5.43375,3.6030389830105055e-06,5.136800118619848e-06,3.443349753239113e-06,7.0024008669713245e-06,7.763824903478623e-05,1.0886358554870723e-06,0.02024999999999988
5.434269231,3.6012404614474647e-06,5.131759833400329e-06,3.444469879480792e-06,7.001443375050594e-06,7.768694298105206e-05,1.0881798045405356e-06,0.020769231000000055
5.434788462,3.594611665047938e-06,5.129230184224702e-06,3.445657695307088e-06,7.000878437566204e-06,7.76968708222303e-05,1.087399372519352e-06,0.02128846200000023
5.435307692,3.584161337370861e-06,5.129893046152089e-06,3.4415662646419394e-06,7.000358895907969e-06,7.761733053837816e-05,1.086138611267573e-06,0.021807692000000323
5.435826923,3.574005631942936e-06,5.134049346058227e-06,3.4324929602942047e-06,6.999505393852469e-06,7.754493643383267e-05,1.0846178143240574e-06,0.02232692299999961
5.436346154,3.565630179267232e-06,5.136707740070498e-06,3.42701446175054e-06,6.997940529965131e-06,7.767778801556565e-05,1.083482916166088e-06,0.022846153999999785
5.436865385,3.5575874351257284e-06,5.136405466998324e-06,3.4266736956822017e-06,6.996472584827152e-06,7.786153969001001e-05,1.0831402312313744e-06,0.02336538499999996
5.437384615,3.547531889273734e-06,5.134954514793331e-06,3.426223908331941e-06,6.998072907950095e-06,7.783938099727596e-05,1.083407394449186e-06,0.023884615000000053
5.437903846,3.5326432738761806e-06,5.134382181023241e-06,3.4251374728684472e-06,7.004448412517477e-06,7.766000213903607e-05,1.0838077457326534e-06,0.02440384600000023
5.438423077,3.511576912707975e-06,5.140170665148385e-06,3.4249563097741674e-06,7.011324221554483e-06,7.74752144387514e-05,1.0839520520676236e-06,0.024923077000000404
5.438942308,3.4867294257978795e-06,5.155629611732264e-06,3.4252661156543173e-06,7.012967338191976e-06,7.738824960085241e-05,1.0838066441065403e-06,0.02544230799999969
5.439461538,3.463392936111302e-06,5.180211809267916e-06,3.424844539702851e-06,7.008481512155336e-06,7.742997502531733e-05,1.083479381213192e-06,0.025961537999999784
5.439980769,3.447106348150188e-06,5.2094986799545534e-06,3.425333616002834e-06,7.000500356687264e-06,7.748837718157509e-05,1.0828486022785143e-06,0.02648076899999996
5.4405,3.4388514426211018e-06,5.2339763760717615e-06,3.427812532986583e-06,6.993516721816019e-06,7.74727274044017e-05,1.0815719437635936e-06,0.027000000000000135
5.441019231,3.4351411243069745e-06,5.2508325499286674e-06,3.4275009679258235e-06,6.990441357591934e-06,7.755406473126983e-05,1.079472869063226e-06,0.02751923100000031
5.441538462,3.433562464796355e-06,5.265987065457027e-06,3.4206196676988867e-06,6.990555551754098e-06,7.808330917557643e-05,1.0769567935151403e-06,0.028038461999999598
5.442057692,3.4333463321550982e-06,5.2831594965910495e-06,3.409273343426089e-06,6.992774001732126e-06,7.896126918065086e-05,1.0747152395172866e-06,0.02855769199999969
5.442576923,3.4336148006254173e-06,5.300680383375923e-06,3.3963548309935087e-06,6.997533981109439e-06,7.949458358746876e-05,1.0730228725467097e-06,0.029076922999999866
5.443096154,3.433613217911309e-06,5.314434743113497e-06,3.382575997207601e-06,7.004863108369807e-06,7.945941627197879e-05,1.071652808953606e-06,0.02959615400000004
5.443615385,3.432565751302798e-06,5.323921646007038e-06,3.368572755851698e-06,7.011021193112779e-06,7.935841517208602e-05,1.070273936653334e-06,0.030115385000000217
5.444134615,3.430583642740596e-06,5.331151418031882e-06,3.3558300430878894e-06,7.011212308123459e-06,7.961293556091496e-05,1.068727653469345e-06,0.03063461500000031
5.444653846,3.428394762207802e-06,5.336101382693426e-06,3.3456312347131054e-06,7.005511320596798e-06,8.031438209553568e-05,1.0671367227793835e-06,0.031153845999999596
5.445173077,3.425369154527623e-06,5.338836376136135e-06,3.337696375037411e-06,6.9989121820314405e-06,8.125578355973795e-05,1.065770492924555e-06,0.03167307699999977
5.445692308,3.4193082981796653e-06,5.339890458678738e-06,3.330667151607279e-06,6.9948980595278205e-06,8.207333507481717e-05,1.064740585836381e-06,0.03219230799999995
5.446211538,3.408628258796225e-06,5.340029171047198e-06,3.324054249755424e-06,6.9933361935432725e-06,8.258862609362481e-05,1.0639506581369011e-06,0.03271153800000004
5.446730769,3.39501843788753e-06,5.340072281853449e-06,3.318418775684223e-06,6.994059234270964e-06,8.28683304822577e-05,1.0632752277682628e-06,0.033230769000000215
5.44725,3.382715798871033e-06,5.338226144424241e-06,3.3154602370295165e-06,6.997210890148192e-06,8.302081149924158e-05,1.0626551664546051e-06,0.03375000000000039
5.447769231,3.375200536323342e-06,5.332947480864033e-06,3.316663396388263e-06,6.999984769963127e-06,8.310868254251038e-05,1.0620999816737353e-06,0.03426923099999968
5.448288462,3.372079778325501e-06,5.3269813718255855e-06,3.320249651237313e-06,6.996863043038056e-06,8.315519303723805e-05,1.0616633590742758e-06,0.03478846199999985
5.448807692,3.3708294704978287e-06,5.323903023720624e-06,3.3239488250940817e-06,6.987695078174657e-06,8.316302566126976e-05,1.0614024072043891e-06,0.035307691999999946
5.449326923,3.369844033464984e-06,5.323701187272638e-06,3.3301847730536943e-06,6.979103383166353e-06,8.317088534225795e-05,1.0613625074316253e-06,0.03582692300000012
5.449846154,3.3671231661920045e-06,5.322969808315872e-06,3.3422940772395987e-06,6.97636526099884e-06,8.323977600871396e-05,1.061315663840664e-06,0.0363461540000003
5.450365385,3.3607468760285807e-06,5.3194762010356914e-06,3.3569441246311395e-06,6.978605800477055e-06,8.338611434913515e-05,1.060742813603119e-06,0.036865384999999584
5.450884615,3.352704962094223e-06,5.314719376171288e-06,3.367159178646316e-06,6.982318858656912e-06,8.356427693619135e-05,1.0595104401072358e-06,0.03738461499999968
5.451403846,3.347270549464381e-06,5.3111844690254105e-06,3.371944741956456e-06,6.986677957422567e-06,8.37037889354709e-05,1.0578758143541311e-06,0.03790384599999985
5.451923077,3.3452882474588697e-06,5.310084971680468e-06,3.374635061813174e-06,6.993498975024435e-06,8.377242313411272e-05,1.055884179452814e-06,0.03842307700000003
5.452442308,3.344782450333485e-06,5.311631828137497e-06,3.373184878005357e-06,7.004488366960709e-06,8.378735299245916e-05,1.0535051676666458e-06,0.0389423080000002
5.452961538,3.3445202060286074e-06,5.314331758001731e-06,3.3653845812541678e-06,7.018230519834318e-06,8.374606208961212e-05,1.0509276925617212e-06,0.039461538000000296
5.453480769,3.3442642611693407e-06,5.315828445708744e-06,3.358878613810724e-06,7.03156296564734e-06,8.363271873326986e-05,1.0482836813542715e-06,0.03998076899999958
5.454,3.344113109628427e-06,5.315754186357338e-06,3.35798338683888e-06,7.0429909387756206e-06,8.34790375765363e-05,1.0454842908978862e-06,0.04049999999999976
5.454519231,3.344157001158577e-06,5.314998250379448e-06,3.358776661679636e-06,7.0520372604439686e-06,8.332234264532128e-05,1.042397194169313e-06,0.041019230999999934
5.455038462,3.3443019102423508e-06,5.314621876289538e-06,3.360502438294869e-06,7.057522440826021e-06,8.317617291396585e-05,1.0390194440218231e-06,0.04153846200000011
5.455557692,3.344479420555439e-06,5.315265447029781e-06,3.360544056893632e-06,7.05902920360492e-06,8.305896506547858e-05,1.0355202943721217e-06,0.0420576920000002
5.456076923,3.3452790630479822e-06,5.316576481190146e-06,3.35663585484705e-06,7.058963585982992e-06,8.29906280274655e-05,1.0322482975916462e-06,0.04257692300000038
5.456596154,3.3475767797253373e-06,5.318441070092841e-06,3.352346309682744e-06,7.059123348576567e-06,8.296944669739341e-05,1.0297235981879275e-06,0.043096153999999665
5.457115385,3.350208699884719e-06,5.322166521878926e-06,3.349148887751448e-06,7.057215951679741e-06,8.299666798376803e-05,1.028259733048257e-06,0.04361538499999984
5.457634615,3.351131503818243e-06,5.330272236456334e-06,3.346694751900297e-06,7.05218007056638e-06,8.305277678179941e-05,1.027553800534376e-06,0.04413461499999993
5.458153846,3.350952022874976e-06,5.341905781283613e-06,3.3452997252709647e-06,7.049891750510985e-06,8.295603103858413e-05,1.0269723863928434e-06,0.04465384600000011
5.458673077,3.3507336445916983e-06,5.35291148568947e-06,3.3453319452418886e-06,7.057923018356238e-06,8.266290074244487e-05,1.026059609361303e-06,0.045173077000000283
5.459192308,3.3507394799108528e-06,5.361343930220709e-06,3.3456679728043097e-06,7.076528819692708e-06,8.248390253334761e-05,1.0247437631045213e-06,0.04569230800000046
5.459711538,3.3516893645669158e-06,5.367241725656829e-06,3.346025871839574e-06,7.09756870774656e-06,8.247563318998311e-05,1.0233160883072503e-06,0.04621153799999966
5.460230769,3.352469848867108e-06,5.370173752790119e-06,3.352017204892294e-06,7.11173612373359e-06,8.247582967851197e-05,1.022229623242379e-06,0.04673076899999984
5.46075,3.351362184666988e-06,5.3703126901909205e-06,3.367958857032721e-06,7.115985896199333e-06,8.248064958463085e-05,1.021757428084846e-06,0.047250000000000014
5.461269231,3.348435023127244e-06,5.369265082714368e-06,3.390988761684288e-06,7.113243176034122e-06,8.246722491012128e-05,1.0217201694947326e-06,0.04776923100000019
5.461788462,3.344320818993549e-06,5.367475821497117e-06,3.415819154657224e-06,7.108257595223496e-06,8.249556300146778e-05,1.021572908835011e-06,0.048288462000000365
5.462307692,3.33937785410294e-06,5.364665307759012e-06,3.4386580811771456e-06,7.1068236324929576e-06,8.263596325897969e-05,1.020897241119238e-06,0.04880769200000046
5.462826923,3.334293552112756e-06,5.362061881369112e-06,3.4580822331554765e-06,7.113826899934295e-06,8.27779073005604e-05,1.0198203718904297e-06,0.049326922999999745
5.463346154,3.330267101722331e-06,5.360859386863264e-06,3.473466983371328e-06,7.126383897119014e-06,8.283944802908479e-05,1.018730645404469e-06,0.04984615399999992
5.463865385,3.3272577830147254e-06,5.361273640652179e-06,3.483693488954778e-06,7.136257366128608e-06,8.284585736016458e-05,1.017817897726947e-06,0.050365385000000096
5.464384615,3.3240027968075115e-06,5.363939715224559e-06,3.489850611600812e-06,7.141000753407976e-06,8.28219768394555e-05,1.0171293722960537e-06,0.05088461500000019
5.464903846,3.3204028545974864e-06,5.369223381327979e-06,3.4941648557943268e-06,7.144181763942279e-06,8.278708998462967e-05,1.0167875766362592e-06,0.051403846000000364
5.465423077,3.318724855316885e-06,5.3755987974783e-06,3.497828706939767e-06,7.150632241247598e-06,8.274705275375739e-05,1.0169024025432069e-06,0.05192307699999965
5.465942308,3.3215475517416257e-06,5.38144420111947e-06,3.50259905062999e-06,7.163562268873007e-06,8.266353139335447e-05,1.0172754231113023e-06,0.052442307999999827
5.466461538,3.327108023837705e-06,5.386642992529764e-06,3.507289966715589e-06,7.177487137010545e-06,8.248542591167424e-05,1.0173982054255722e-06,0.05296153799999992
5.466980769,3.330372708155828e-06,5.390190909744597e-06,3.506644858925293e-06,7.182320804672791e-06,8.230488489663853e-05,1.016867897569041e-06,0.053480769000000095
5.4675,3.3304061415997955e-06,5.389444704487658e-06,3.500605010146182e-06,7.176259334246906e-06,8.2291028561821e-05,1.0156430593479024e-06,0.05400000000000027
5.468019231,3.3288418965942755e-06,5.384301848836525e-06,3.494819232629334e-06,7.163973073851545e-06,8.210414507597853e-05,1.0138306496203386e-06,0.054519231000000445
5.468538462,3.325819704391394e-06,5.377906757797671e-06,3.4914556081561423e-06,7.148627663584154e-06,8.128238296126894e-05,1.0115247662453836e-06,0.05503846199999973
5.469057692,3.3210371680610967e-06,5.3714635190730215e-06,3.488711875244956e-06,7.128169002519906e-06,8.035008551203746e-05,1.0088480989604936e-06,0.055557691999999825
5.469576923,3.314269116881349e-06,5.363135596976253e-06,3.4841855235494666e-06,7.096605793319968e-06,8.001624106402684e-05,1.0058051794737023e-06,0.056076923
5.470096154,3.309661441325361e-06,5.351943570694953e-06,3.476638565816233e-06,7.055739161792888e-06,8.001755304188544e-05,1.0020359471684056e-06,0.056596154000000176
5.470615385,3.3099344021406574e-06,5.341365728139907e-06,3.469570677688617e-06,7.01745985485351e-06,7.995240520117288e-05,9.97035651209382e-07,0.05711538500000035
5.471134615,3.309830945955724e-06,5.335093625954723e-06,3.4687007844030024e-06,6.989190051486003e-06,7.987495214149198e-05,9.909881356931205e-07,0.057634615000000444
5.471653846,3.3060578337641205e-06,5.331684941301776e-06,3.4733757471077484e-06,6.971057519531323e-06,7.984583622399712e-05,9.85219710331328e-07,0.05815384599999973
5.472173077,3.3032122697894986e-06,5.32905878076051e-06,3.478586051455485e-06,6.9621726191604e-06,7.982569327916237e-05,9.81043825593006e-07,0.05867307699999991
5.472692308,3.3068335880721017e-06,5.329496844489613e-06,3.480834820586566e-06,6.959696083167144e-06,7.977610688151662e-05,9.784946338109614e-07,0.05919230800000008
5.473211538,3.316088591525336e-06,5.3340422593159485e-06,3.479958030526937e-06,6.9599687202525246e-06,7.970039625443989e-05,9.76713020307016e-07,0.059711538000000175
5.473730769,3.326519629936615e-06,5.338680154353679e-06,3.479546769193299e-06,6.961892912096294e-06,7.968155859209254e-05,9.748868347950157e-07,0.06023076900000035
5.47425,3.3366581582119617e-06,5.341646666636372e-06,3.480684224260891e-06,6.965952938768956e-06,7.972204304328264e-05,9.728571689954984e-07,0.06074999999999964
5.474769231,3.346270828472394e-06,5.34506935753833e-06,3.4836938556728326e-06,6.972316654881586e-06,7.974656815857407e-05,9.712223199715223e-07,0.06126923099999981
5.475288462,3.352624002488901e-06,5.352225856407917e-06,3.4896694347966024e-06,6.9794030210174805e-06,7.980606895896575e-05,9.70601530705177e-07,0.06178846199999999
5.475807692,3.3541272191545195e-06,5.362989420480746e-06,3.495437880933427e-06,6.984202510741623e-06,7.994832096947291e-05,9.709431378891525e-07,0.06230769200000008
5.476326923,3.353935071646348e-06,5.370188385333702e-06,3.4990658815855216e-06,6.984887897691941e-06,8.009577642824345e-05,9.717062615938617e-07,0.06282692300000026
5.476846154,3.35492768613588e-06,5.3713899201205495e-06,3.501276622547292e-06,6.981508513547133e-06,8.016260519462005e-05,9.723937299363172e-07,0.06334615400000043
5.477365385,3.3557173903257533e-06,5.371691358896011e-06,3.50265647583008e-06,6.975975945669482e-06,8.014621687820333e-05,9.728554541411562e-07,0.06386538499999972
5.477884615,3.3518441817124164e-06,5.370722855479503e-06,3.502853568514846e-06,6.9734098974907e-06,8.020171649501666e-05,9.732678117675625e-07,0.06438461499999981
5.478403846,3.332346016569711e-06,5.366809599710649e-06,3.5009921499268614e-06,6.977563874973051e-06,8.037040581415256e-05,9.739168935419815e-07,0.06490384599999999
5.478923077,3.2790993778691014e-06,5.364468806448741e-06,3.4980012949096253e-06,6.983110560740244e-06,8.046280957267073e-05,9.748503976047507e-07,0.06542307700000016
5.479442308,3.1807900970540908e-06,5.36493298798223e-06,3.496031102365116e-06,6.9812440447102815e-06,8.043582356074023e-05,9.758504879365223e-07,0.06594230800000034
5.479961538,3.0632120291867293e-06,5.365368760047844e-06,3.497245868546893e-06,6.970176793586136e-06,8.035611685547796e-05,9.768076626469049e-07,0.06646153800000043
5.480480769,2.9780424198953968e-06,5.3657325564929775e-06,3.5000667654460245e-06,6.953290755326325e-06,8.02344988562249e-05,9.77791160144068e-07,0.06698076899999972
5.481,2.9395847428459302e-06,5.364836060596377e-06,3.5009533576181995e-06,6.933889125336514e-06,8.006266528715163e-05,9.788662740517926e-07,0.0674999999999999
5.481519231,2.927142326267023e-06,5.361309067318087e-06,3.4997538364882266e-06,6.91430963493116e-06,7.989785660171428e-05,9.801488940349984e-07,0.06801923100000007
5.482038462,2.9250506290893223e-06,5.358996400853828e-06,3.4980275845796373e-06,6.896715800546357e-06,7.988194490345068e-05,9.818620636080936e-07,0.06853846200000024
5.482557692,2.925039937850694e-06,5.35898539481692e-06,3.4970767553749247e-06,6.8835193231371805e-06,7.996368592123788e-05,9.840248518040128e-07,0.06905769200000034
5.483076923,2.9251663654673346e-06,5.358832907124799e-06,3.496925624047901e-06,6.876351689352436e-06,7.995548083978839e-05,9.8647194204919e-07,0.06957692299999962
5.483596154,2.922032400365376e-06,5.360724395053897e-06,3.497338338109929e-06,6.874461389676661e-06,7.984349725127562e-05,9.890821554929846e-07,0.0700961539999998
5.484115385,2.9114272422939028e-06,5.363774706580744e-06,3.4992595703385063e-06,6.874157930767319e-06,7.964195104656366e-05,9.915640242032342e-07,0.07061538499999997
5.484634615,2.89924930349374e-06,5.364418366419484e-06,3.5030844479336747e-06,6.87177059216529e-06,7.910454316108652e-05,9.932497917030384e-07,0.07113461500000007
5.485153846,2.8917873626642603e-06,5.362832613574205e-06,3.5098881432479248e-06,6.868434654780599e-06,7.758186131907115e-05,9.93765216320834e-07,0.07165384600000024
5.485673077,2.888429849849961e-06,5.357761865391779e-06,3.522115402485131e-06,6.867700898875995e-06,7.493678926014022e-05,9.938579794729034e-07,0.07217307700000042
5.486192308,2.885413507271596e-06,5.347433369630029e-06,3.5390047076574997e-06,6.869779152324783e-06,7.296738123446749e-05,9.946115218894392e-07,0.0726923079999997
5.486711538,2.880136085786225e-06,5.331158928714664e-06,3.5561072744056327e-06,6.873359322629307e-06,7.283067565443273e-05,9.960090725500689e-07,0.0732115379999998
5.487230769,2.8755442619047703e-06,5.307222804784995e-06,3.5678274529875646e-06,6.877558994621803e-06,7.249518363465532e-05,9.971425339307947e-07,0.07373076899999997
5.48775,2.873527858116021e-06,5.274400665893993e-06,3.568778101173946e-06,6.881409123813814e-06,7.101201124896057e-05,9.974037595498152e-07,0.07425000000000015
5.488269231,2.8708216652791565e-06,5.236618139007336e-06,3.5608861896662146e-06,6.886678344374222e-06,6.979504792106145e-05,9.97043090937499e-07,0.07476923100000032
5.488788462,2.8648715496031e-06,5.204348220337251e-06,3.556784503264158e-06,6.898345708505514e-06,6.925830782481449e-05,9.968515956921974e-07,0.07528846199999961
5.489307692,2.8514461878106574e-06,5.187505106238025e-06,3.56422714903431e-06,6.9211819821901606e-06,6.887179770424561e-05,9.971495433485604e-07,0.0758076919999997
5.489826923,2.8274638942926e-06,5.185844059181615e-06,3.5749357829646357e-06,6.954568600194325e-06,6.833846482191751e-05,9.97357351238604e-07,0.07632692299999988
5.490346154,2.8034136928278348e-06,5.189813737831263e-06,3.5801685749650053e-06,6.990782479064745e-06,6.78817224885549e-05,9.967006258519112e-07,0.07684615400000006
5.490865385,2.7911276184449797e-06,5.192417423960844e-06,3.581165307549532e-06,7.022709480189132e-06,6.777636610866461e-05,9.9472708553776e-07,0.07736538500000023
5.491384615,2.7862186073458477e-06,5.192778781527965e-06,3.580746005345049e-06,7.049419274849952e-06,6.77805535424524e-05,9.913460054050243e-07,0.07788461500000032
5.491903846,2.783908414444086e-06,5.188715262331095e-06,3.5804407648217106e-06,7.073202464820138e-06,6.776750164064416e-05,9.869294801473645e-07,0.07840384599999961
5.492423077,2.785371412743201e-06,5.167959188115208e-06,3.580430628341859e-06,7.096326041142382e-06,6.743061307489812e-05,9.822204360352428e-07,0.07892307699999979
5.492942308,2.78771414202462e-06,5.112323225602761e-06,3.57931729300866e-06,7.119763947799004e-06,6.642394349650171e-05,9.778153239019431e-07,0.07944230799999996
5.493461538,2.7886137765862064e-06,5.0280628607784425e-06,3.5795729074623484e-06,7.1439931813026096e-06,6.551596221423206e-05,9.737862153710334e-07,0.07996153800000005
5.493980769,2.785545642354657e-06,4.950283383365016e-06,3.5841606246973345e-06,7.170009828975162e-06,6.537899780461765e-05,9.69852701774074e-07,0.08048076900000023
5.4945,2.778508390886424e-06,4.900850109015406e-06,3.5896063095627605e-06,7.197680293810272e-06,6.52197049061907e-05,9.659480585430076e-07,0.0810000000000004
5.495019231,2.773702221629011e-06,4.874236423899722e-06,3.591956109896232e-06,7.22373718645403e-06,6.438901498340546e-05,9.626322818088989e-07,0.08151923099999969
5.495538462,2.773593910090278e-06,4.858560566231105e-06,3.591915568479686e-06,7.242768810318682e-06,6.354085308561038e-05,9.605931837240657e-07,0.08203846199999987
5.496057692,2.773709818546153e-06,4.847930570415368e-06,3.5912665856539103e-06,7.250920263084841e-06,6.328094385934702e-05,9.59996980149691e-07,0.08255769199999996
5.496576923,2.770930322151621e-06,4.842278702328072e-06,3.59054199593924e-06,7.248644016720646e-06,6.327884696969739e-05,9.606234048915944e-07,0.08307692300000014
5.497096154,2.767956891653283e-06,4.84027307974796e-06,3.5882921627041374e-06,7.239503329464338e-06,6.327447278062071e-05,9.621995728083394e-07,0.08359615400000031
5.497615385,2.7670773288258445e-06,4.840465054358639e-06,3.577203528790123e-06,7.226444933832922e-06,6.322353768194556e-05,9.647272953549975e-07,0.0841153849999996
5.498134615,2.767544736489371e-06,4.843741725174034e-06,3.547961298483481e-06,7.211572416939156e-06,6.286826513746874e-05,9.6817119431656e-07,0.08463461499999969
5.498653846,2.766902646669851e-06,4.8392817272940855e-06,3.5072285680854228e-06,7.198062725541701e-06,6.244817779670075e-05,9.719747683971417e-07,0.08515384599999987
5.499173077,2.7582800539206383e-06,4.812222028266338e-06,3.4750591300061573e-06,7.188448450510357e-06,6.23422276989844e-05,9.755102190100197e-07,0.08567307700000004
5.499692308,2.741976926439632e-06,4.772084451919123e-06,3.45774271519746e-06,7.183157623858837e-06,6.238465577058752e-05,9.786389239609048e-07,0.08619230800000022
5.500211538,2.731637147817342e-06,4.741153987579335e-06,3.4470748578875755e-06,7.180964339459821e-06,6.243341017185667e-05,9.817023313785978e-07,0.08671153800000031
5.500730769,2.7309358400375112e-06,4.724328519237478e-06,3.435886095838988e-06,7.181236852988143e-06,6.245591565022178e-05,9.851705867454048e-07,0.0872307689999996
5.50125,2.731648459701977e-06,4.715536984476534e-06,3.423601165521185e-06,7.184371839457179e-06,6.246319865902761e-05,9.892403223405512e-07,0.08774999999999977
5.501769231,2.731717724867304e-06,4.7111166906468366e-06,3.415212396623229e-06,7.186020751919178e-06,6.247487583030292e-05,9.93644940584393e-07,0.08826923099999995
5.502288462,2.7318892942205864e-06,4.706432089577328e-06,3.4126643053395327e-06,7.178546323529164e-06,6.244234981692842e-05,9.978817840918931e-07,0.08878846200000012
5.502807692,2.739749891989985e-06,4.695929932351909e-06,3.4130722477970057e-06,7.159340920855034e-06,6.25036032758817e-05,1.0015703785879605e-06,0.08930769200000022
5.503326923,2.7642943970358158e-06,4.673914382049179e-06,3.413816082665212e-06,7.133435350659092e-06,6.270466563419719e-05,1.0045840019490546e-06,0.08982692300000039
5.503846154,2.793084677462784e-06,4.6356551374927705e-06,3.4142970897733944e-06,7.108869249448168e-06,6.280393967887997e-05,1.0069356762191252e-06,0.09034615399999968
5.504365385,2.808384122805629e-06,4.589528999432352e-06,3.414840964287692e-06,7.08765907202783e-06,6.280269934490463e-05,1.0086194857861914e-06,0.09086538499999985
5.504884615,2.8104561215204323e-06,4.559078199839075e-06,3.41456132330743e-06,7.064991362084948e-06,6.28845395233949e-05,1.009642363023748e-06,0.09138461499999995
5.505403846,2.808133244523342e-06,4.552303926072689e-06,3.41147943634588e-06,7.0387374176381925e-06,6.298097356139098e-05,1.0101806788570767e-06,0.09190384600000012
5.505923077,2.808068506624535e-06,4.55248528550859e-06,3.406322132719919e-06,7.012380202457228e-06,6.299766472301369e-05,1.010481182377149e-06,0.0924230770000003
5.506442308,2.816042441499759e-06,4.550187495597792e-06,3.404035745528349e-06,6.989371774204554e-06,6.298466802598017e-05,1.0106826109512565e-06,0.09294230799999958
5.506961538,2.836544195072073e-06,4.548471339957248e-06,3.407664132373096e-06,6.971103243945736e-06,6.298234094027379e-05,1.0108927147113395e-06,0.09346153799999968
5.507480769,2.8646619307880795e-06,4.549058166518347e-06,3.4129813867120047e-06,6.957779714744528e-06,6.29925600175611e-05,1.011139953856647e-06,0.09398076899999985
5.508,2.8881709655784428e-06,4.5509167779042425e-06,3.415694672406206e-06,6.948440674031464e-06,6.301637405417746e-05,1.0113113738839496e-06,0.09450000000000003
5.508519231,2.901482173137892e-06,4.550100934882724e-06,3.4165550841077597e-06,6.941911027551734e-06,6.304771984759715e-05,1.0113111465185313e-06,0.0950192310000002
5.509038462,2.9058625913265595e-06,4.544781366218998e-06,3.4167485945206463e-06,6.937481529475973e-06,6.306513341143746e-05,1.0111472789575277e-06,0.09553846200000038
5.509557692,2.8984758357206298e-06,4.5383712381565085e-06,3.4167595826965022e-06,6.934283030593672e-06,6.306525783982804e-05,1.0110373911258455e-06,0.09605769199999958
5.510076923,2.8735598895279687e-06,4.534030741776133e-06,3.4170159941097724e-06,6.93027939231003e-06,6.307596577640812e-05,1.011223886214188e-06,0.09657692299999976
5.510596154,2.838992020114964e-06,4.532135763490785e-06,3.4172740180697187e-06,6.923981804016685e-06,6.309477211734058e-05,1.0116700948995178e-06,0.09709615399999993
5.511115385,2.8132160025374948e-06,4.531774204456134e-06,3.4171382624176973e-06,6.917287871798337e-06,6.309547665044297e-05,1.012269547739684e-06,0.09761538500000011
5.511634615,2.80119147713243e-06,4.533153455054968e-06,3.416544966512538e-06,6.9124440211448126e-06,6.311906988324263e-05,1.013024268959262e-06,0.0981346150000002
5.512153846,2.796372569173117e-06,4.535768737098628e-06,3.4159181992796986e-06,6.907732509995036e-06,6.319643597601338e-05,1.0139037884764365e-06,0.09865384600000038
5.512673077,2.799158547721526e-06,4.53768969041479e-06,3.4162249851879984e-06,6.897991169595088e-06,6.325051850849025e-05,1.0147638189314792e-06,0.09917307699999967
5.513192308,2.819365722734717e-06,4.538893052699061e-06,3.418287157499944e-06,6.879801849915782e-06,6.32464764004214e-05,1.0153538874714045e-06,0.09969230799999984
5.513711538,2.859137137262563e-06,4.540621538099172e-06,3.421444169240433e-06,6.859015541937563e-06,6.321831641264915e-05,1.0155476563509928e-06,0.10021153799999993
5.514230769,2.9015678194893387e-06,4.5434205723928624e-06,3.422776521080232e-06,6.846881594425452e-06,6.319890789701449e-05,1.0155341918528007e-06,0.10073076900000011
5.51475,2.928170456213882e-06,4.544502520379436e-06,3.4227506532689187e-06,6.846854636263774e-06,6.329283373359924e-05,1.015624232112565e-06,0.10125000000000028
5.515269231,2.936276441067332e-06,4.543457663569999e-06,3.42502718085586e-06,6.853753789743322e-06,6.345083251231196e-05,1.0161623583063923e-06,0.10176923100000046
5.515788462,2.934669664892399e-06,4.549742202522321e-06,3.426883764148122e-06,6.8621963810936814e-06,6.349038425219632e-05,1.0170866088702663e-06,0.10228846199999975
5.516307692,2.9324751861022795e-06,4.567058384993012e-06,3.4268719566426004e-06,6.869495078178798e-06,6.34708663461266e-05,1.0176940647977529e-06,0.10280769199999984
5.516826923,2.9331028947439978e-06,4.581590602912198e-06,3.428196912377122e-06,6.874195110738539e-06,6.338842375594644e-05,1.017686802878721e-06,0.10332692300000001
5.517346154,2.938408510258434e-06,4.582439566467674e-06,3.430123171251654e-06,6.875822107357553e-06,6.31353288773348e-05,1.0175554779766889e-06,0.10384615400000019
5.517865385,2.9577980525883283e-06,4.573771854857157e-06,3.430852298196459e-06,6.875192377383045e-06,6.303045419926045e-05,1.0177971391235608e-06,0.10436538500000037
5.518384615,2.9978590039330324e-06,4.560914549555396e-06,3.4308209703891145e-06,6.872975883586479e-06,6.315791037672831e-05,1.0184885594179665e-06,0.10488461500000046
5.518903846,3.042688064905764e-06,4.543684274852346e-06,3.430822341015193e-06,6.871466890136264e-06,6.31026359050423e-05,1.019184481804239e-06,0.10540384599999975
5.519423077,3.070178702009405e-06,4.523401415306249e-06,3.43028354689416e-06,6.876090192085124e-06,6.330638040736538e-05,1.019127522132568e-06,0.10592307699999992
5.519942308,3.0777884230722325e-06,4.505986926898902e-06,3.4294370162029963e-06,6.88423679820942e-06,6.423563147780945e-05,1.017953878449372e-06,0.1064423080000001
5.520461538,3.0748599468642554e-06,4.495839157376084e-06,3.4314699138470733e-06,6.881811118013122e-06,6.50020540905485e-05,1.0159771530206247e-06,0.10696153800000019
5.520980769,3.0725370131134424e-06,4.49267867157033e-06,3.431980737575342e-06,6.862379059841712e-06,6.511061374898548e-05,1.013743562434513e-06,0.10748076900000036
5.5215,3.076242954092617e-06,4.494415638502317e-06,3.4173178221924763e-06,6.831555326968707e-06,6.507326356112136e-05,1.0116746060888016e-06,0.10799999999999965
5.522019231,3.080689215053283e-06,4.493640082614572e-06,3.3872610728800714e-06,6.7925109536348885e-06,6.509760159662637e-05,1.0099360574835024e-06,0.10851923099999983
5.522538462,3.0824654950214973e-06,4.484549167264236e-06,3.3553607809975915e-06,6.74631760958116e-06,6.507539339495075e-05,1.008572329579632e-06,0.109038462
5.523057692,3.0831124811944995e-06,4.4728866820488846e-06,3.3272200758737354e-06,6.696014419959632e-06,6.49398690502854e-05,1.007790045915193e-06,0.1095576920000001
5.523576923,3.08332794623582e-06,4.465364558646009e-06,3.2986741760099893e-06,6.641220476525387e-06,6.467321833436419e-05,1.0076627899493854e-06,0.11007692300000027
5.524096154,3.082381364242652e-06,4.463200314452572e-06,3.266050743339125e-06,6.576316087432484e-06,6.450580725313071e-05,1.007906599870945e-06,0.11059615400000045
5.524615385,3.081606315133286e-06,4.461716182053909e-06,3.2333101375450774e-06,6.494319439975953e-06,6.453220799427949e-05,1.0082642616064894e-06,0.11111538499999973
5.525134615,3.0826041963533024e-06,4.458534904148424e-06,3.2068366300048705e-06,6.395505628006097e-06,6.429012792302188e-05,1.0086566258992412e-06,0.11163461499999983
5.525653846,3.079897682967005e-06,4.458430117972665e-06,3.186147157523101e-06,6.291030606467247e-06,6.359763075659072e-05,1.0091298190049666e-06,0.112153846
5.526173077,3.066230227912954e-06,4.459640449469314e-06,3.16797042395521e-06,6.1922668699014345e-06,6.298728516986488e-05,1.0096409516253911e-06,0.11267307700000018
5.526692308,3.043096261435124e-06,4.459212512066151e-06,3.153175669661197e-06,6.102980330666412e-06,6.273998133734053e-05,1.0097104729545756e-06,0.11319230800000035
5.527211538,3.019164233751381e-06,4.459749485455573e-06,3.15788730262782e-06,6.024361347881884e-06,6.267980793244848e-05,1.0089125173069946e-06,0.11371153800000044
5.527730769,3.0021654484434377e-06,4.460194257698118e-06,3.20132900492352e-06,5.957206767129926e-06,6.268038429717971e-05,1.007523575344484e-06,0.11423076899999973
5.52825,2.995748782626602e-06,4.459993093300739e-06,3.260184617161525e-06,5.896840460111226e-06,6.266865340173727e-05,1.0060709131074716e-06,0.11474999999999991
5.528769231,3.0002633076071904e-06,4.455868664793605e-06,3.293524340147054e-06,5.837430738365572e-06,6.262577563393706e-05,1.0047090418263096e-06,0.11526923100000008
5.529288462,3.01081936162234e-06,4.437043857495852e-06,3.2999516074081243e-06,5.782815796240018e-06,6.258821875821661e-05,1.0033390322173668e-06,0.11578846200000026
5.529807692,3.017532034181655e-06,4.404619640153634e-06,3.297315823579636e-06,5.743756304495379e-06,6.256004013302959e-05,1.0020270132204697e-06,0.11630769200000035
5.530326923,3.015390234170966e-06,4.379000353984123e-06,3.2907388276893565e-06,5.724826751448707e-06,6.256635460332309e-05,1.0011390848140348e-06,0.11682692299999964
5.530846154,3.009682685297324e-06,4.377471096045288e-06,3.2780513380858805e-06,5.719970736743203e-06,6.268614260235217e-05,1.0009371165584717e-06,0.11734615399999981
5.531365385,3.0067528144996053e-06,4.3967900685146224e-06,3.25980648305456e-06,5.720065836943846e-06,6.285164608648496e-05,1.001249063071411e-06,0.11786538499999999
5.531884615,3.006324330153936e-06,4.4235102666202185e-06,3.2396567362251086e-06,5.719480390437556e-06,6.281557258058837e-05,1.0017761817823795e-06,0.11838461500000008
5.532403846,3.006510906811711e-06,4.447860782677233e-06,3.2190123878112968e-06,5.7171434634961534e-06,6.267766769090678e-05,1.0023978664405546e-06,0.11890384600000026
5.532923077,3.0059499597115097e-06,4.464494371096173e-06,3.1969535196844828e-06,5.714615627170941e-06,6.283227441209843e-05,1.003090009645266e-06,0.11942307700000043
5.533442308,3.000116971348632e-06,4.472433836489503e-06,3.1762831536546008e-06,5.713400858052253e-06,6.317473994446308e-05,1.0037250403664127e-06,0.11994230799999972
5.533961538,2.985992612195871e-06,4.474728068861323e-06,3.1609703355909054e-06,5.714604758480862e-06,6.343123049546666e-05,1.0041537135474738e-06,0.12046153799999981
5.534480769,2.967014932403532e-06,4.474709247384533e-06,3.1483236336101272e-06,5.717289834465756e-06,6.366918094240459e-05,1.0044612517214178e-06,0.12098076899999999
5.535,2.948441294466156e-06,4.474276785342596e-06,3.133767036663943e-06,5.714863044917929e-06,6.33850502172734e-05,1.0047359900893266e-06,0.12150000000000016
5.535519231,2.931943724208048e-06,4.475488641299166e-06,3.116969944096551e-06,5.698840077877796e-06,6.178276823202641e-05,1.0048414742908438e-06,0.12201923100000034
5.536038462,2.9165704995503194e-06,4.48209453671904e-06,3.100212198527877e-06,5.667759487355431e-06,5.966674634914328e-05,1.0046278781609464e-06,0.12253846199999963
5.536557692,2.902365926322541e-06,4.496859131718162e-06,3.085078108492512e-06,5.628035839255538e-06,5.861852388577759e-05,1.0040100130639491e-06,0.12305769199999972
5.537076923,2.89029413682649e-06,4.516596615931027e-06,3.070600748158962e-06,5.588071163422968e-06,5.856832011213015e-05,1.002933056017339e-06,0.1235769229999999
5.537596154,2.8825905029470555e-06,4.534541977027461e-06,3.0540937338319944e-06,5.55265229333837e-06,5.86337352027076e-05,1.001396688537946e-06,0.12409615400000007
5.538115385,2.8811814677294256e-06,4.547393382228951e-06,3.0340428452875223e-06,5.519264193041252e-06,5.861838789730271e-05,9.992937849659047e-07,0.12461538500000024
5.538634615,2.8822171889117117e-06,4.554558976163843e-06,3.013807586625121e-06,5.480733296192319e-06,5.8634513419445936e-05,9.960508865476985e-07,0.12513461500000034
5.539153846,2.880776500369621e-06,4.558741681993101e-06,2.999021309325943e-06,5.431334874473915e-06,5.869506446869417e-05,9.906062205552265e-07,0.12565384599999962
5.539673077,2.879052806984979e-06,4.567395104070068e-06,2.991670765936888e-06,5.369424879047244e-06,5.875605031226804e-05,9.822640843081591e-07,0.1261730769999998
5.540192308,2.8812340436427243e-06,4.580104825388746e-06,2.989681584969939e-06,5.301303339541561e-06,5.877216598401129e-05,9.717153664618748e-07,0.12669230799999998
5.540711538,2.884835149099907e-06,4.5888300274731e-06,2.991750164419119e-06,5.2386761574645655e-06,5.874572789876589e-05,9.606627682642489e-07,0.12721153800000007
5.541230769,2.885588852507724e-06,4.59227870793233e-06,3.0173349549926666e-06,5.185228065214139e-06,5.872603803207465e-05,9.506133551933632e-07,0.12773076900000024
5.54175,2.885961650512066e-06,4.593849770342718e-06,3.1217073042621007e-06,5.135481687269155e-06,5.872713994192667e-05,9.423911323773956e-07,0.12825000000000042
5.542269231,2.887229714374886e-06,4.593901844340977e-06,3.322368367512166e-06,5.085067907914118e-06,5.870589892723854e-05,9.362926518497176e-07,0.1287692309999997
5.542788462,2.8846935247882187e-06,4.5859019174322296e-06,3.5351418530548013e-06,5.03392486741305e-06,5.864358936308103e-05,9.322662514680836e-07,0.12928846199999988
5.543307692,2.878165945006234e-06,4.560476655078025e-06,3.668878156360578e-06,4.984729266205057e-06,5.860098308203871e-05,9.29977653537788e-07,0.12980769199999997
5.543826923,2.8704736473905102e-06,4.521518699192987e-06,3.711464586183033e-06,4.940329830373392e-06,5.860685979945851e-05,9.287177264520278e-07,0.13032692300000015
5.544346154,2.862952163510551e-06,4.485219988650502e-06,3.703213491423389e-06,4.902308355437096e-06,5.8516243491341625e-05,9.275425656256828e-07,0.13084615400000033
5.544865385,2.8567690217656272e-06,4.4602146133385655e-06,3.6895378409679728e-06,4.871128759825671e-06,5.822206055715879e-05,9.261543685646346e-07,0.1313653849999996
5.545384615,2.851850122063176e-06,4.444632806513781e-06,3.704429832020474e-06,4.845714815113226e-06,5.792095315822273e-05,9.252120483941472e-07,0.1318846149999997
5.545903846,2.848079512503482e-06,4.435186235827492e-06,3.759565856701141e-06,4.823828332276847e-06,5.781428511865712e-05,9.252793667980862e-07,0.13240384599999988
5.546423077,2.8454019353415976e-06,4.4291048172698855e-06,3.834084290365073e-06,4.803853852830288e-06,5.781368455926092e-05,9.26168778784008e-07,0.13292307700000006
5.546942308,2.8432016445946936e-06,4.4251694426453446e-06,3.903120298935203e-06,4.786245174682792e-06,5.777490492591126e-05,9.273509928877734e-07,0.13344230800000023
5.547461538,2.8425600921244742e-06,4.4239433291766e-06,3.964047293527846e-06,4.773545111790442e-06,5.764838344326098e-05,9.28486676443756e-07,0.13396153800000032
5.547980769,2.842589096437536e-06,4.423892100781824e-06,4.0207929424263385e-06,4.768453750551465e-06,5.738514380270196e-05,9.292219791797628e-07,0.1344807689999996
5.5485,2.8284519898404192e-06,4.420689314201565e-06,4.071316308062342e-06,4.771672311216403e-06,5.695479806557278e-05,9.287052350132542e-07,0.1349999999999998
5.549019231,2.78382246664859e-06,4.411123023760664e-06,4.109986215469348e-06,4.779746074600616e-06,5.652603265095628e-05,9.258272256519492e-07,0.13551923099999996
5.549538462,2.721354402958916e-06,4.395148612952203e-06,4.133453387657768e-06,4.786128846759649e-06,5.6362139450082e-05,9.197721566090612e-07,0.13603846200000014
5.550057692,2.6719521663537747e-06,4.373269861094445e-06,4.14488734017893e-06,4.788688210967132e-06,5.6372368680248624e-05,9.100873833233056e-07,0.13655769200000023
5.550576923,2.647694392844036e-06,4.347084905683455e-06,4.150879580311056e-06,4.790477727382558e-06,5.623843271339224e-05,8.962502087546309e-07,0.1370769230000004
5.551096154,2.640371013055218e-06,4.321179581984334e-06,4.154808939005294e-06,4.794492905651743e-06,5.597058690277724e-05,8.774544550167305e-07,0.1375961539999997
5.551615385,2.640884245174507e-06,4.294969806022679e-06,4.156403779700658e-06,4.8031729654277644e-06,5.5813312371187445e-05,8.53580336742359e-07,0.13811538499999987
5.552134615,2.643564077990044e-06,4.259412667838627e-06,4.155840777898393e-06,4.816755141052232e-06,5.579465502542912e-05,8.268617865835558e-07,0.13863461499999996
5.552653846,2.6411201473455627e-06,4.203619945375485e-06,4.15495343523851e-06,4.831459873066273e-06,5.5801438227713113e-05,8.015471866401183e-07,0.13915384600000014
5.553173077,2.624532521883688e-06,4.117396730114821e-06,4.155698418379865e-06,4.841720824999836e-06,5.580611491954942e-05,7.809024108457692e-07,0.1396730770000003
5.553692308,2.594006894657433e-06,3.992913426761339e-06,4.157384053395898e-06,4.843209934269977e-06,5.573415223547826e-05,7.654038706085079e-07,0.1401923079999996
5.554211538,2.564137846320101e-06,3.830038140174665e-06,4.156845969327878e-06,4.834780938457508e-06,5.5648658603959374e-05,7.539821406007357e-07,0.1407115379999997
5.554730769,2.546818543137152e-06,3.645968361129667e-06,4.154505047052558e-06,4.819322010442555e-06,5.565685529978984e-05,7.457760933629812e-07,0.14123076899999987
5.55525,2.5387214329753874e-06,3.481005992427587e-06,4.1559867891912735e-06,4.801662796330765e-06,5.523525221595121e-05,7.404891648675858e-07,0.14175000000000004
5.555769231,2.5326119228366457e-06,3.376015023902726e-06,4.163164399932147e-06,4.784235685680522e-06,5.439020657485675e-05,7.378169309408343e-07,0.14226923100000022
5.556288462,2.527931348610317e-06,3.333619312997742e-06,4.169764925173007e-06,4.767457320540294e-06,5.40701435015624e-05,7.371819192873673e-07,0.1427884620000004
5.556807692,2.531369849746435e-06,3.3243697843488467e-06,4.171264943846613e-06,4.753220375935068e-06,5.406789226793848e-05,7.381190951329251e-07,0.1433076919999996
5.557326923,2.543237423693337e-06,3.3238281463399576e-06,4.1688790257728105e-06,4.743316492866564e-06,5.364879235679792e-05,7.40465280049969e-07,0.14382692299999977
5.557846154,2.5522077474037325e-06,3.323898308808467e-06,4.165934065611704e-06,4.737345217370495e-06,5.3054566497285256e-05,7.437726086949551e-07,0.14434615399999995
5.558365385,2.554134930280052e-06,3.325273702235564e-06,4.16740255326196e-06,4.7343767205271495e-06,5.265193990119363e-05,7.468967785350206e-07,0.14486538500000012
5.558884615,2.5537825574595477e-06,3.330186657395438e-06,4.1724553084518094e-06,4.733937798026829e-06,5.242934995685723e-05,7.487928223221889e-07,0.14538461500000022
5.559403846,2.553711659729861e-06,3.338670982180495e-06,4.176109837394748e-06,4.735353890665501e-06,5.232294754480518e-05,7.493490093185445e-07,0.1459038460000004
5.559923077,2.553726093097206e-06,3.3478938569039573e-06,4.179297324817517e-06,4.737936410886617e-06,5.230770673258277e-05,7.490625654489618e-07,0.14642307699999968
5.560442308,2.5541742114455395e-06,3.351327244639935e-06,4.185662851113803e-06,4.740480939027945e-06,5.2289613143675176e-05,7.483174899896462e-07,0.14694230799999985
5.560961538,2.5576223790505296e-06,3.3471268529840635e-06,4.196813024351564e-06,4.7414723466013744e-06,5.216055519645783e-05,7.472947181921921e-07,0.14746153799999995
5.561480769,2.5646312200561644e-06,3.342979426886471e-06,4.20992868598138e-06,4.740986822450593e-06,5.190980380826107e-05,7.460774010973312e-07,0.14798076900000012
5.562,2.5711995478243754e-06,3.341780462375564e-06,4.219878745012259e-06,4.738855208397143e-06,5.157398980299061e-05,7.446072491324663e-07,0.1485000000000003
5.562519231,2.5746615235737327e-06,3.341006434907537e-06,4.225092197268681e-06,4.732699101721265e-06,5.122040693771827e-05,7.428452527391324e-07,0.14901923099999959
5.563038462,2.576186184117785e-06,3.335827554273825e-06,4.227939923327411e-06,4.721042659506882e-06,5.098763736976728e-05,7.410995883782046e-07,0.14953846199999976
5.563557692,2.5763121610101675e-06,3.315109618940465e-06,4.230759691413325e-06,4.709083882514233e-06,5.094365937852206e-05,7.401490411082374e-07,0.15005769199999985
5.564076923,2.574661902722889e-06,3.2758395106541225e-06,4.233884435983754e-06,4.703583104550541e-06,5.09268520836183e-05,7.404334543380477e-07,0.15057692300000003
5.564596154,2.5730731920911303e-06,3.2310748339613637e-06,4.23735881971336e-06,4.705121737608351e-06,5.080102391882356e-05,7.414613381264339e-07,0.1510961540000002
5.565115385,2.5727447468085152e-06,3.1931851984870817e-06,4.238979800255464e-06,4.71312353762567e-06,5.070405810400733e-05,7.425710762482522e-07,0.15161538500000038
5.565634615,2.5728033936232486e-06,3.16445018426106e-06,4.236341937760296e-06,4.726933697859572e-06,5.0705702175878175e-05,7.435356663880076e-07,0.15213461499999958
5.566153846,2.572766143030968e-06,3.1437353587122906e-06,4.232027209521874e-06,4.744340965817536e-06,5.040924025291446e-05,7.443124118154789e-07,0.15265384599999976
5.566673077,2.571983806866685e-06,3.128937673061375e-06,4.229502715427683e-06,4.762337944948361e-06,4.938236868927541e-05,7.448052961569592e-07,0.15317307699999994
5.567192308,2.5703816974711646e-06,3.1149750889541158e-06,4.2291860181466045e-06,4.776569188012679e-06,4.794896562659336e-05,7.450021240833621e-07,0.1536923080000001
5.567711538,2.5694641518777097e-06,3.097240396669637e-06,4.229773053571823e-06,4.784236839987655e-06,4.696283577066952e-05,7.450261967204489e-07,0.1542115380000002
5.568230769,2.56941046686632e-06,3.079244715224368e-06,4.229771290246897e-06,4.788098828644918e-06,4.672609943706831e-05,7.449701617829161e-07,0.15473076900000038
5.56875,2.569517179346205e-06,3.0680611688159605e-06,4.23109477546357e-06,4.797940761802358e-06,4.6714412688421536e-05,7.449204012504162e-07,0.15524999999999967
5.569269231,2.569433226775987e-06,3.066016166255656e-06,4.238259939457214e-06,4.8210190558254805e-06,4.624440876653101e-05,7.449659757857968e-07,0.15576923099999984
5.569788462,2.5690073360290408e-06,3.07149202236027e-06,4.25044502295554e-06,4.851925607975697e-06,4.5009439460311934e-05,7.450639883392689e-07,0.15628846200000002
5.570307692,2.5690576361370954e-06,3.080729977979965e-06,4.261835759562665e-06,4.8811894642356e-06,4.327575623885529e-05,7.452566087443804e-07,0.1568076920000001
5.570826923,2.5694418288346523e-06,3.089498806110605e-06,4.269476486197435e-06,4.906498491810786e-06,4.168161875060712e-05,7.460621715747877e-07,0.15732692300000028
5.571346154,2.5690490393776297e-06,3.09546732579569e-06,4.274506206750718e-06,4.928599788144626e-06,4.061692480327708e-05,7.486716767229143e-07,0.15784615400000046
5.571865385,2.56848325583444e-06,3.0988631046752323e-06,4.278970858099777e-06,4.942948156957661e-06,3.9974927646994905e-05,7.54109293358231e-07,0.15836538499999975
5.572384615,2.5693088326137943e-06,3.100934146808303e-06,4.282389379138904e-06,4.944439966275088e-06,3.951972787806605e-05,7.613578166981619e-07,0.15888461499999984
5.572903846,2.571046542894846e-06,3.102471995541104e-06,4.281803109494878e-06,4.940635181601054e-06,3.916872203457512e-05,7.678280596944457e-07,0.15940384600000002
5.573423077,2.572747391389483e-06,3.10363589791614e-06,4.277069746935689e-06,4.943283262622485e-06,3.898138969109974e-05,7.72257510657874e-07,0.1599230770000002
5.573942308,2.574311263453331e-06,3.1041602218421603e-06,4.2703971388815896e-06,4.953332399808064e-06,3.895578498448468e-05,7.752911605170808e-07,0.16044230800000037
5.574461538,2.5757258285850675e-06,3.1041329780779944e-06,4.261804892878065e-06,4.965262137412917e-06,3.893400160345056e-05,7.772815170277674e-07,0.16096153800000046
5.574980769,2.5777397982244244e-06,3.1058634446357136e-06,4.250207443273352e-06,4.972270341781272e-06,3.877001876229745e-05,7.775523679587061e-07,0.16148076899999975
5.5755,2.5809199698389625e-06,3.1119861411297515e-06,4.2377157015705895e-06,4.971493402002985e-06,3.845123217738167e-05,7.785746899890425e-07,0.16199999999999992
5.576019231,2.5849064323271754e-06,3.1245350253413494e-06,4.229018415846744e-06,4.9663479633921845e-06,3.80703352021091e-05,7.853089902867711e-07,0.1625192310000001
5.576538462,2.590233442980008e-06,3.1465464954518557e-06,4.225407828893452e-06,4.959668096796535e-06,3.776451327102801e-05,7.910430772243795e-07,0.16303846200000027
5.577057692,2.5988768172571748e-06,3.179686148376446e-06,4.2254795021248095e-06,4.949641631486935e-06,3.761602313774664e-05,7.912002546409924e-07,0.16355769200000037
5.577576923,2.6107290738323384e-06,3.221749864669901e-06,4.226952255860704e-06,4.934202989189053e-06,3.758215688788384e-05,8.154105571916971e-07,0.16407692299999965
5.578096154,2.620418271994973e-06,3.2729709137136232e-06,4.226338652123272e-06,4.915167768353125e-06,3.75847197284191e-05,8.88373577824748e-07,0.16459615399999983
5.578615385,2.6241433678416825e-06,3.338420095772146e-06,4.2249473193812286e-06,4.895928661249774e-06,3.758516770375313e-05,9.84186605914584e-07,0.165115385
5.579134615,2.6246480299414863e-06,3.41601797367256e-06,4.225182939647448e-06,4.87948610325785e-06,3.756103306687135e-05,1.0691792555946278e-06,0.1656346150000001
5.579653846,2.624670917943824e-06,3.4896071344195217e-06,4.224099513612691e-06,4.86867606186164e-06,3.7526197690991737e-05,1.1344424895155794e-06,0.16615384600000027
5.580173077,2.6248576586643525e-06,3.542143486234551e-06,4.223185588573818e-06,4.868471629299045e-06,3.750759164150817e-05,1.1837751076071109e-06,0.16667307700000045
5.580692308,2.6246592393312416e-06,3.572705352787769e-06,4.226458132349971e-06,4.885851587822566e-06,3.750158255560485e-05,1.2205144879186372e-06,0.16719230799999973
5.581211538,2.62176600417574e-06,3.591827757121784e-06,4.230062140535749e-06,4.919839382347058e-06,3.749980023292276e-05,1.2458791179111925e-06,0.16771153799999983
5.581730769,2.6149617500878063e-06,3.607193506751867e-06,4.230832069031203e-06,4.951834141548543e-06,3.750850894608992e-05,1.2612949080660324e-06,0.168230769
5.58225,2.607762330443956e-06,3.617791199677923e-06,4.231382389679792e-06,4.963929578227163e-06,3.7450155434432654e-05,1.2692644650107175e-06,0.16875000000000018
5.582769231,2.604608942293133e-06,3.617543502851894e-06,4.231994369001179e-06,4.961897591857628e-06,3.716524768192569e-05,1.2727937802328028e-06,0.16926923100000035
5.583288462,2.604520633161417e-06,3.6066036426926703e-06,4.2314078117043e-06,4.956343116924545e-06,3.6844645309707744e-05,1.2743046644414064e-06,0.16978846199999964
5.583807692,2.604834642140337e-06,3.5922489277702204e-06,4.232195239826426e-06,4.943624759338929e-06,3.677733665351613e-05,1.2748211489580048e-06,0.17030769199999973
5.584326923,2.604032463349455e-06,3.5797855958771157e-06,4.237783225087396e-06,4.920343232590573e-06,3.67675977419216e-05,1.2746205531528674e-06,0.1708269229999999
5.584846154,2.600342807158266e-06,3.571024325837243e-06,4.245759265513143e-06,4.893897495596183e-06,3.6725765511913785e-05,1.2775882192229846e-06,0.17134615400000008
5.585365385,2.595532868344558e-06,3.567010237409862e-06,4.247923210495313e-06,4.872245185265173e-06,3.672540582490065e-05,1.297466365724409e-06,0.17186538500000026
5.585884615,2.593503698008073e-06,3.566876207430145e-06,4.239217961674939e-06,4.856693732808232e-06,3.6714666201545455e-05,1.352381465769368e-06,0.17238461500000035
5.586403846,2.59571676566494e-06,3.5668578723440747e-06,4.2216069963909725e-06,4.846468183934064e-06,3.671179125165707e-05,1.4453532645567885e-06,0.17290384599999964
5.586923077,2.60109180595526e-06,3.5659380052538923e-06,4.200502921812683e-06,4.837718929021344e-06,3.6548213913021536e-05,1.5569831102288605e-06,0.17342307699999981
5.587442308,2.6067809672935823e-06,3.5685761843745093e-06,4.181174997245469e-06,4.82411846047518e-06,3.612579491003428e-05,1.6611276216625496e-06,0.173942308
5.587961538,2.610487194924306e-06,3.576920504269369e-06,4.16530201004557e-06,4.804287359580712e-06,3.574114799366882e-05,1.741767957664505e-06,0.17446153800000008
5.588480769,2.6121202740746965e-06,3.5849675110673077e-06,4.152467460467253e-06,4.783534422177616e-06,3.5589461592640475e-05,1.7966837341088568e-06,0.17498076900000026
5.589,2.6127866394932384e-06,3.5869134969467166e-06,4.1451874884735135e-06,4.769301097738495e-06,3.5574156355040184e-05,1.831887682931341e-06,0.17550000000000043
5.589519231,2.613688576424912e-06,3.583117741295e-06,4.145635901906382e-06,4.763657242513267e-06,3.557938097084279e-05,1.854933163806688e-06,0.17601923099999972
5.590038462,2.614831627806404e-06,3.57655653387237e-06,4.149669355031849e-06,4.765417437541938e-06,3.557218320458423e-05,1.871372568653705e-06,0.1765384619999999
5.590557692,2.6147914250042814e-06,3.577528017641146e-06,4.151266138732683e-06,4.77803046242355e-06,3.556225626136987e-05,1.884226612105593e-06,0.177057692
5.591076923,2.611326012301145e-06,3.596790788085606e-06,4.148972865178473e-06,4.803237850930807e-06,3.55640563295172e-05,1.894771315351925e-06,0.17757692300000016
5.591596154,2.605030356758377e-06,3.6247479185112096e-06,4.145071645833035e-06,4.837160358921441e-06,3.5575371828270855e-05,1.903558565968622e-06,0.17809615400000034
5.592115385,2.601060824358246e-06,3.64293847625928e-06,4.143618849311936e-06,4.873651264965194e-06,3.5587900542026214e-05,1.9110487014271582e-06,0.17861538499999963
5.592634615,2.6003026174979973e-06,3.648140207747867e-06,4.145934527443102e-06,4.904479653397954e-06,3.5601127352956645e-05,1.9176159189798774e-06,0.17913461499999972
5.593153846,2.599712515174959e-06,3.648140037222229e-06,4.149109349811551e-06,4.926254620395867e-06,3.561539510564496e-05,1.923364821999077e-06,0.1796538459999999
5.593673077,2.597827024451226e-06,3.647431231280596e-06,4.151054492696509e-06,4.942585883360664e-06,3.562547383937681e-05,1.9282436851683618e-06,0.18017307700000007
5.594192308,2.5957030945249707e-06,3.646598597648784e-06,4.151250395581431e-06,4.961085636413424e-06,3.562555304829713e-05,1.9323320885849326e-06,0.18069230800000025
5.594711538,2.5978560101236656e-06,3.647953419711274e-06,4.149169230686025e-06,4.9919462117125305e-06,3.56210070008741e-05,1.9357144025745686e-06,0.18121153800000034
5.595230769,2.601289388884709e-06,3.6517964624755256e-06,4.144345250023404e-06,5.034858433916503e-06,3.5622778833351726e-05,1.9379972533834086e-06,0.18173076899999963
5.59575,2.600204734156718e-06,3.653307423006641e-06,4.137333116800679e-06,5.075936306831757e-06,3.56297908734717e-05,1.938574280695616e-06,0.1822499999999998
5.596269231,2.598848426997721e-06,3.650885499368709e-06,4.130014369473791e-06,5.105384946907128e-06,3.563348262965491e-05,1.9382329069411693e-06,0.18276923099999998
5.596788462,2.600624013847609e-06,3.649293631594115e-06,4.123341751213952e-06,5.122354023524971e-06,3.563461531251348e-05,1.94038482483385e-06,0.18328846200000015
5.597307692,2.601277903417548e-06,3.6510675205418936e-06,4.117979882475434e-06,5.128526661085877e-06,3.563985965404828e-05,1.950335719221321e-06,0.18380769200000024
5.597826923,2.596022785663685e-06,3.6521071747943616e-06,4.119841380342144e-06,5.129064827621332e-06,3.5650581726841664e-05,1.973878481090797e-06,0.18432692300000042
5.598346154,2.584519735970648e-06,3.650824650375462e-06,4.134384520347137e-06,5.129685547535065e-06,3.565899150334739e-05,2.0167060477012786e-06,0.1848461539999997
5.598865385,2.5702068257552985e-06,3.652110548231873e-06,4.156011836549336e-06,5.1308305867394e-06,3.563917453782562e-05,2.083955919948295e-06,0.18536538499999988
5.599384615,2.5563298766116077e-06,3.657424690810893e-06,4.174200821863234e-06,5.130631149177956e-06,3.555632069979242e-05,2.178070042420382e-06,0.18588461499999998
5.599903846,2.544603877676681e-06,3.664198110635102e-06,4.183018771658269e-06,5.12968047807855e-06,3.539943325612658e-05,2.293972402570192e-06,0.18640384600000015
5.600423077,2.5378350495563787e-06,3.669500355052658e-06,4.1834533280131e-06,5.132688372888991e-06,3.517082785899332e-05,2.4150970853270994e-06,0.18692307700000033
5.600942308,2.538016460309095e-06,3.6731131221181225e-06,4.180907223330028e-06,5.144178679201369e-06,3.4854343797267465e-05,2.5178593861783973e-06,0.1874423079999996
5.601461538,2.5413618859654643e-06,3.6790444994649466e-06,4.178419377873314e-06,5.159960372960997e-06,3.4484227597274906e-05,2.584492010014297e-06,0.1879615379999997
5.601980769,2.5443096343993446e-06,3.6861384329055704e-06,4.175501886777578e-06,5.170841487005046e-06,3.42637788404967e-05,2.6135556102121605e-06,0.18848076899999988
5.6025,2.547189446482213e-06,3.690514488088061e-06,4.171388429136554e-06,5.173219829595671e-06,3.4286114988839167e-05,2.6191515423719813e-06,0.18900000000000006
5.603019231,2.548743324162687e-06,3.6931496947824457e-06,4.167618123410333e-06,5.1668834833030565e-06,3.418095247990344e-05,2.618754859287621e-06,0.18951923100000023
5.603538462,2.5484742262289205e-06,3.696331261613587e-06,4.166534945106096e-06,5.152768716622616e-06,3.3817849871616446e-05,2.620575109996144e-06,0.1900384620000004
5.604057692,2.5474198718270507e-06,3.700821774437604e-06,4.167508264570306e-06,5.139495475128963e-06,3.361034928226809e-05,2.6235535570840766e-06,0.1905576919999996
5.604576923,2.548140545823269e-06,3.702156268441116e-06,4.16784147290681e-06,5.135928840692374e-06,3.364050074861751e-05,2.625543531183661e-06,0.1910769229999998
5.605096154,2.550504772875729e-06,3.700292579484656e-06,4.1651438507590616e-06,5.139484126817187e-06,3.371978370615184e-05,2.6266043897453743e-06,0.19159615399999996
5.605615385,2.54986459958128e-06,3.705129492745134e-06,4.161628325758525e-06,5.144523273361948e-06,3.376746455705081e-05,2.6275566360831544e-06,0.19211538500000014
5.606134615,2.548249008005346e-06,3.719652494173498e-06,4.162523246222975e-06,5.150791106730221e-06,3.380014017637585e-05,2.6292681453047806e-06,0.19263461500000023
5.606653846,2.548512904093167e-06,3.738679673141681e-06,4.168944064211138e-06,5.160851393534213e-06,3.386168386427446e-05,2.632806468894466e-06,0.1931538460000004
5.607173077,2.5493882725021647e-06,3.756165265112573e-06,4.178420307270037e-06,5.174709009118575e-06,3.3827191351834714e-05,2.6394331795108408e-06,0.1936730769999997
5.607692308,2.5506124789544625e-06,3.7687437926052127e-06,4.18855543440882e-06,5.18768324785789e-06,3.369148699995965e-05,2.6502088279561422e-06,0.19419230799999987
5.608211538,2.547232030022793e-06,3.775196811698121e-06,4.197476307707697e-06,5.195930697704907e-06,3.362552936613505e-05,2.664808727806232e-06,0.19471153799999996
5.608730769,2.537262751462059e-06,3.77374146742438e-06,4.204072029152451e-06,5.200369519011422e-06,3.364580843090358e-05,2.680697716282664e-06,0.19523076900000014
5.60925,2.527608238887367e-06,3.770520444828944e-06,4.208704715033509e-06,5.204934125723176e-06,3.367323449903891e-05,2.6947204718711256e-06,0.1957500000000003
5.609769231,2.5224732288153207e-06,3.773247553619285e-06,4.212211735326022e-06,5.212275959351408e-06,3.3661959620705234e-05,2.7054523064246e-06,0.1962692309999996
5.610288462,2.520430617594509e-06,3.7812335236594e-06,4.213714271801687e-06,5.22145571835958e-06,3.362778344970239e-05,2.7131506771710658e-06,0.19678846199999978
5.610807692,2.5180936416589965e-06,3.790029702454348e-06,4.209487592223216e-06,5.230346596140578e-06,3.3637055473647624e-05,2.718296811275529e-06,0.19730769199999987
5.611326923,2.515360616777339e-06,3.795379100998309e-06,4.197757462127141e-06,5.237220074663624e-06,3.365906965842842e-05,2.721089493330595e-06,0.19782692300000004
5.611846154,2.515127206790733e-06,3.798035690630445e-06,4.1827400520773695e-06,5.240128120925437e-06,3.3678981748461645e-05,2.721956309542695e-06,0.19834615400000022
5.612365385,2.515826896417104e-06,3.8023877427640695e-06,4.167836886913079e-06,5.239332733651824e-06,3.384735973463785e-05,2.7217441418734626e-06,0.1988653850000004
5.612884615,2.5150053869853504e-06,3.8115678877485007e-06,4.1529792988907695e-06,5.237761066928099e-06,3.426197214633314e-05,2.7212388292448307e-06,0.1993846149999996
5.613403846,2.514702995554163e-06,3.823514115043743e-06,4.136207789625197e-06,5.237903127722334e-06,3.4909144751520084e-05,2.720885543396757e-06,0.19990384599999977
5.613923077,2.514769685928393e-06,3.832498382862083e-06,4.111756575301587e-06,5.241640672853119e-06,3.5798107392085816e-05,2.720929764985848e-06,0.20042307699999995
5.614442308,2.5146155767287183e-06,3.835322981045281e-06,4.082034117673797e-06,5.249051433563034e-06,3.693823727636122e-05,2.721575142753746e-06,0.20094230800000012
5.614961538,2.5154274454254448e-06,3.8323472270642365e-06,4.062741767806898e-06,5.260827137323313e-06,3.820393251505606e-05,2.723063475775092e-06,0.20146153800000022
5.615480769,2.5065199588487e-06,3.827086785260928e-06,4.05950699568151e-06,5.28080383422726e-06,3.936023030863861e-05,2.725694381780624e-06,0.2019807690000004
5.616,2.4761751948884216e-06,3.823722502905736e-06,4.062156877469076e-06,5.310674511655613e-06,4.025901501490708e-05,2.729659901899698e-06,0.20249999999999968
5.616519231,2.4375787929472534e-06,3.821577913019903e-06,4.063544197645331e-06,5.348685317775919e-06,4.08897652529646e-05,2.7347758522289705e-06,0.20301923099999986
5.617038462,2.4110329257567377e-06,3.81947454314768e-06,4.063025142540794e-06,5.3932938465805085e-06,4.127906539620144e-05,2.7405066751925675e-06,0.20353846200000003
5.617557692,2.397769047750363e-06,3.819851104574205e-06,4.064298943023104e-06,5.44157616735588e-06,4.1434750572217006e-05,2.7462944351955813e-06,0.20405769200000012
5.618076923,2.3923870460102334e-06,3.820440502816424e-06,4.070269225137812e-06,5.484632903922618e-06,4.1438346743751406e-05,2.7517906691949247e-06,0.2045769230000003
5.618596154,2.391769313204314e-06,3.819162919465406e-06,4.074448153623083e-06,5.51084405807028e-06,4.149567279575817e-05,2.7569138041665334e-06,0.2050961539999996
5.619115385,2.392666992704724e-06,3.818533462095271e-06,4.071569635209115e-06,5.51567564167088e-06,4.16305059621297e-05,2.761834461391766e-06,0.20561538499999976
5.619634615,2.3950078444656077e-06,3.818169205664109e-06,4.066335924707385e-06,5.504647268327417e-06,4.16670255305663e-05,2.766818254109925e-06,0.20613461499999985
5.620153846,2.401877022550462e-06,3.8215386476515e-06,4.0648220617544665e-06,5.4883083564715e-06,4.167586427443613e-05,2.771894391713621e-06,0.20665384600000003
5.620673077,2.41853025433524e-06,3.8354843525006e-06,4.069397940828485e-06,5.47486310795859e-06,4.172127954149846e-05,2.7766321856887365e-06,0.2071730770000002
5.621192308,2.446461031639327e-06,3.856566356400621e-06,4.0756650246597175e-06,5.465715949273816e-06,4.172136221305481e-05,2.780409333014557e-06,0.20769230800000038
5.621711538,2.4792277813518115e-06,3.87545088899799e-06,4.077002847935333e-06,5.45848220891161e-06,4.1814905481189096e-05,2.7830028751267807e-06,0.20821153799999959
5.622230769,2.509307702048456e-06,3.891665251468681e-06,4.072058577728413e-06,5.451837801332364e-06,4.205489363099975e-05,2.784743358131936e-06,0.20873076899999976
5.62275,2.5326544508730365e-06,3.907948601920154e-06,4.061255346064367e-06,5.446892741130204e-06,4.228709661705636e-05,2.7860068754061224e-06,0.20924999999999994
5.623269231,2.546095763915588e-06,3.92037256959419e-06,4.04941677714353e-06,5.445366434548226e-06,4.246476458548805e-05,2.7867792910694115e-06,0.2097692310000001
5.623788462,2.548826204590148e-06,3.932146143743392e-06,4.042980316928201e-06,5.447914566950722e-06,4.263777637418986e-05,2.786853204695303e-06,0.2102884620000003
5.624307692,2.5463518707751944e-06,3.952587739292928e-06,4.04150351915359e-06,5.454742226335926e-06,4.283424229649723e-05,2.786306829800932e-06,0.21080769200000038
5.624826923,2.544395930192112e-06,3.979004114866706e-06,4.04209071648057e-06,5.465771387808039e-06,4.303242670729105e-05,2.7854413633167825e-06,0.21132692299999967
5.625346154,2.5449707665982867e-06,4.00649413976951e-06,4.044395380665151e-06,5.482668919653691e-06,4.319752249179276e-05,2.7843732309850685e-06,0.21184615399999984
5.625865385,2.549012669441233e-06,4.034681230707437e-06,4.051462630788664e-06,5.50801981285832e-06,4.333130126982376e-05,2.7830053127431508e-06,0.21236538500000002
5.626384615,2.5508611095857142e-06,4.055768772350035e-06,4.066111159586745e-06,5.539879989803475e-06,4.347427460135165e-05,2.7813046249507142e-06,0.2128846150000001
5.626903846,2.5497552797516844e-06,4.064702523191492e-06,4.086907261449324e-06,5.572072154244597e-06,4.367021331340996e-05,2.779485049774956e-06,0.21340384600000029
5.627423077,2.562317796268724e-06,4.068606360527723e-06,4.110820915158603e-06,5.598010889851356e-06,4.384032214964559e-05,2.7779043868763637e-06,0.21392307700000046
5.627942308,2.58815293569734e-06,4.076170890570109e-06,4.1375572357784055e-06,5.615461464622336e-06,4.375439596728684e-05,2.776892405618905e-06,0.21444230799999975
5.628461538,2.601956126958201e-06,4.092022206992734e-06,4.169138958667349e-06,5.626952024106595e-06,4.3449941672274205e-05,2.776700345953634e-06,0.21496153799999984
5.628980769,2.601453049298793e-06,4.1112068394862186e-06,4.204254487689341e-06,5.63583560590336e-06,4.3300015053941006e-05,2.777570449375792e-06,0.21548076900000002
5.6295,2.609174522011441e-06,4.122519802070874e-06,4.233508702707023e-06,5.64725706125936e-06,4.330142311134146e-05,2.779867687667924e-06,0.2160000000000002
5.630019231,2.6361908393552738e-06,4.124674354313386e-06,4.246981849711432e-06,5.666177084389506e-06,4.323578823789869e-05,2.784032533060388e-06,0.21651923100000037
5.630538462,2.6733353339862014e-06,4.124379282599091e-06,4.248615725525239e-06,5.691577760673148e-06,4.33357370634794e-05,2.79025671207065e-06,0.21703846199999965
5.631057692,2.700132430936225e-06,4.125075808784334e-06,4.248332280808888e-06,5.7186257098764925e-06,4.3794411595475545e-05,2.798360033733683e-06,0.21755769199999975
5.631576923,2.7019094191799e-06,4.128175875893173e-06,4.246881554254024e-06,5.743668747145374e-06,4.424929266453967e-05,2.8081708697736203e-06,0.21807692299999992
5.632096154,2.6804199026094404e-06,4.137558195759458e-06,4.24369177985399e-06,5.763825040319983e-06,4.436227053819924e-05,2.819806225981195e-06,0.2185961540000001
5.632615385,2.649257116576868e-06,4.158098772565631e-06,4.24313022617654e-06,5.777840351010446e-06,4.432515976713526e-05,2.833398485753746e-06,0.21911538500000027
5.633134615,2.6234821924964377e-06,4.1879157308288805e-06,4.249548408401736e-06,5.788727935918049e-06,4.429919268371955e-05,2.848595670724898e-06,0.21963461500000037
5.633653846,2.6085395956496703e-06,4.218221618498771e-06,4.26679246058696e-06,5.801120392422851e-06,4.424319019726811e-05,2.8644663727319244e-06,0.22015384599999965
5.634173077,2.6007447283887623e-06,4.24227730144873e-06,4.297243238485858e-06,5.816628347972079e-06,4.43104055717357e-05,2.8800571854623065e-06,0.22067307699999983
5.634692308,2.595803008045946e-06,4.25963766076342e-06,4.333297882850232e-06,5.831057029426418e-06,4.448447958136546e-05,2.894982257066655e-06,0.221192308
5.635211538,2.592457476644113e-06,4.274020275569259e-06,4.36041884383615e-06,5.837956074872627e-06,4.45789446054158e-05,2.9093786540762164e-06,0.2217115380000001
5.635730769,2.591929442889404e-06,4.28971141869506e-06,4.3742509490040256e-06,5.836433287758167e-06,4.461946193226197e-05,2.923357366992512e-06,0.22223076900000027
5.63625,2.5945429329250305e-06,4.311511692340466e-06,4.380574455212874e-06,5.830146546236711e-06,4.473115506620747e-05,2.9365832049073574e-06,0.22275000000000045
5.636769231,2.597800379310569e-06,4.344539480245537e-06,4.384107436976993e-06,5.8214892488524735e-06,4.490433033299857e-05,2.94847517512338e-06,0.22326923099999973
5.637288462,2.598707897218653e-06,4.391437282264794e-06,4.385947498566144e-06,5.810829805991305e-06,4.50028381576827e-05,2.958796800188906e-06,0.2237884619999999
5.637807692,2.5903840526289384e-06,4.444407302738987e-06,4.386064682244864e-06,5.798522230005033e-06,4.50331489729321e-05,2.967807437825948e-06,0.224307692
5.638326923,2.561147370773868e-06,4.4868388073110125e-06,4.38447087447643e-06,5.785518046895084e-06,4.505414434032278e-05,2.975766214814947e-06,0.22482692300000018
5.638846154,2.510286084576816e-06,4.510919119832285e-06,4.381913416532673e-06,5.772459746374916e-06,4.505685493674766e-05,2.9824390899034117e-06,0.22534615400000035
5.639365385,2.456857051369936e-06,4.522030898747447e-06,4.381191534395211e-06,5.759534282867164e-06,4.504229006266737e-05,2.9873565679576174e-06,0.22586538499999964
5.639884615,2.422100067947768e-06,4.53028265279234e-06,4.381551934582457e-06,5.747633485127293e-06,4.4896691457996775e-05,2.990512751112708e-06,0.22638461499999973
5.640403846,2.408911931582613e-06,4.5390301032767465e-06,4.379606025333359e-06,5.739141404648832e-06,4.468699252883902e-05,2.9923535626076507e-06,0.2269038459999999
5.640923077,2.4068209549952997e-06,4.538185206613313e-06,4.378084349743628e-06,5.73657816794907e-06,4.4662737863150334e-05,2.993384044877496e-06,0.22742307700000008
5.641442308,2.408629024372605e-06,4.522899995082489e-06,4.378377909068003e-06,5.7394263120575815e-06,4.47083510796834e-05,2.994000702135276e-06,0.22794230800000026
5.641961538,2.415370791190417e-06,4.50804038226656e-06,4.377800797206547e-06,5.74417471254881e-06,4.472974671394882e-05,2.994320161653413e-06,0.22846153800000035
5.642480769,2.4263694972438726e-06,4.5069872504769205e-06,4.377700334688869e-06,5.748383509854573e-06,4.4860111723246425e-05,2.994302997615871e-06,0.22898076899999964
5.643,2.4206015293163843e-06,4.516531272994513e-06,4.38341177813608e-06,5.751661459048333e-06,4.492725624070626e-05,2.9939717022093854e-06,0.22949999999999982
5.643519231,2.3781952416719745e-06,4.528116032891908e-06,4.40300229942723e-06,5.754028313073372e-06,4.490100998470291e-05,2.99338525236607e-06,0.230019231
5.644038462,2.3201504944041906e-06,4.537896724540934e-06,4.44162093141549e-06,5.751868718029888e-06,4.504418007421824e-05,2.992673697466986e-06,0.23053846200000017
5.644557692,2.282865860501585e-06,4.546838615911713e-06,4.495703676483411e-06,5.737047897273946e-06,4.47677733552508e-05,2.9920634074317107e-06,0.23105769200000026
5.645076923,2.2718696753786284e-06,4.557306885156098e-06,4.55787943910964e-06,5.712264064766755e-06,4.354041338646258e-05,2.9916912730665256e-06,0.23157692300000043
5.645596154,2.2734094270089507e-06,4.570027131091863e-06,4.623783578272028e-06,5.694877118267592e-06,4.245736277690593e-05,2.991500787380348e-06,0.23209615399999972
5.646115385,2.276202786038664e-06,4.579611331242824e-06,4.698236320970448e-06,5.691237338677696e-06,4.234201521203868e-05,2.991382002818696e-06,0.2326153849999999
5.646634615,2.278621196975548e-06,4.579341400768303e-06,4.792481218869879e-06,5.691163723668181e-06,4.260226844991819e-05,2.9913103720497848e-06,0.233134615
5.647153846,2.289652504694987e-06,4.573617333784433e-06,4.908944857686913e-06,5.689433608193487e-06,4.2910974041346136e-05,2.991409830220976e-06,0.23365384600000016
5.647673077,2.315283136432693e-06,4.570359866643124e-06,5.040874383545144e-06,5.68804401725082e-06,4.330314527354424e-05,2.99183977736702e-06,0.23417307700000034
5.648192308,2.3548929343395883e-06,4.569376398815034e-06,5.178895568615353e-06,5.687823075713065e-06,4.3663713197608926e-05,2.992582582180767e-06,0.23469230799999963
5.648711538,2.399353240447557e-06,4.56790085562192e-06,5.308783184490786e-06,5.690569376773314e-06,4.394909268414791e-05,2.99353981226037e-06,0.23521153799999972
5.649230769,2.4372547898186927e-06,4.564504967045216e-06,5.414645032499185e-06,5.702058394208952e-06,4.417058355115135e-05,2.99480403358774e-06,0.2357307689999999
5.64975,2.466371481403838e-06,4.56272063498633e-06,5.4881369441708976e-06,5.725728550015165e-06,4.4333115490097456e-05,2.996752224801778e-06,0.23625000000000007
5.650269231,2.490069589280277e-06,4.564076756401603e-06,5.533972335184567e-06,5.751884318249484e-06,4.444869869163154e-05,2.999989968878238e-06,0.23676923100000025
5.650788462,2.511044982837329e-06,4.563020008712648e-06,5.561963825988941e-06,5.767624035452824e-06,4.452353982119711e-05,3.005154951886305e-06,0.23728846200000042
5.651307692,2.5265558071000134e-06,4.5613246995027104e-06,5.576928756256231e-06,5.773167007211896e-06,4.4579987086688606e-05,3.0126050892452617e-06,0.23780769199999963
5.651826923,2.532033897411473e-06,4.561831744852268e-06,5.580093519291616e-06,5.7739449332407625e-06,4.464894046468801e-05,3.0222031778627734e-06,0.2383269229999998
5.652346154,2.530003275887281e-06,4.56115618783842e-06,5.567997758413922e-06,5.769539698482434e-06,4.470238001391059e-05,3.0333832912965192e-06,0.23884615399999998
5.652865385,2.5254895060768547e-06,4.560615800730992e-06,5.537425247167654e-06,5.757348651708479e-06,4.4690775118236754e-05,3.045542281599873e-06,0.23936538500000015
5.653384615,2.518627968917872e-06,4.560814505512757e-06,5.502723839760549e-06,5.741378877975419e-06,4.46436284195056e-05,3.0584876509899243e-06,0.23988461500000025
5.653903846,2.508832215022054e-06,4.560855198284747e-06,5.483230862548974e-06,5.729823527206497e-06,4.461276011913503e-05,3.0725207308750217e-06,0.24040384600000042
5.654423077,2.499726894088504e-06,4.562405887396564e-06,5.4788837402629725e-06,5.72428005871075e-06,4.460833108637444e-05,3.0881260933444847e-06,0.2409230769999997
5.654942308,2.496704928036122e-06,4.559334282557506e-06,5.481437622911589e-06,5.721032040341373e-06,4.461793569468992e-05,3.105643711263188e-06,0.24144230799999988
5.655461538,2.4994043309668326e-06,4.5429236667599455e-06,5.485957194015664e-06,5.717763297514685e-06,4.4564725448679605e-05,3.1252058973075126e-06,0.24196153799999998
5.655980769,2.50277461360429e-06,4.515581166549884e-06,5.488994282842944e-06,5.713622651316512e-06,4.428375749924199e-05,3.146721936748353e-06,0.24248076900000015
5.6565,2.5048887761164783e-06,4.485582230377025e-06,5.490391593647422e-06,5.709140498206468e-06,4.3847109205375376e-05,3.1696262862448823e-06,0.24300000000000033
5.657019231,2.507145711477427e-06,4.458294317211149e-06,5.49128727054634e-06,5.706169100309817e-06,4.3672565449170815e-05,3.1928774754196075e-06,0.24351923099999961
5.657538462,2.5114471697430623e-06,4.4372117864633895e-06,5.492405301649927e-06,5.705264667390734e-06,4.366527654442997e-05,3.215662252558919e-06,0.2440384619999998
5.658057692,2.5175414603559072e-06,4.426147440703775e-06,5.493658104041351e-06,5.705404515834022e-06,4.3207182703498064e-05,3.2379670154550795e-06,0.24455769199999988
5.658576923,2.521375546122196e-06,4.427153513803958e-06,5.494430631600918e-06,5.705496274044342e-06,4.237995255124729e-05,3.26009003546586e-06,0.24507692300000006
5.659096154,2.5214831749374987e-06,4.439355162567562e-06,5.494724967578493e-06,5.704350690307894e-06,4.179620505686285e-05,3.281445595951429e-06,0.24559615400000023
5.659615385,2.520908486876806e-06,4.460598151642696e-06,5.495150424891552e-06,5.702201999513229e-06,4.162674097919164e-05,3.3000672844931696e-06,0.2461153850000004
5.660134615,2.5215014604335078e-06,4.48754361738288e-06,5.494477172699999e-06,5.702877488190342e-06,4.170105198571784e-05,3.313925828648365e-06,0.2466346149999996
5.660653846,2.523499303933242e-06,4.515427663167587e-06,5.491937235106527e-06,5.709405529077644e-06,4.194473392114475e-05,3.322684915639341e-06,0.2471538459999998
5.661173077,2.526411948977541e-06,4.538294039811459e-06,5.492120971639634e-06,5.71808597779695e-06,4.2447950818598784e-05,3.327596482084943e-06,0.24767307699999996
5.661692308,2.527764029133724e-06,4.550941047982808e-06,5.494222903540904e-06,5.720565016505737e-06,4.340295919832848e-05,3.330021628207865e-06,0.24819230800000014
5.662211538,2.5269087911476058e-06,4.554444141214359e-06,5.493444020353341e-06,5.710975833606739e-06,4.483578747110664e-05,3.330683518674972e-06,0.24871153800000023
5.662730769,2.527559750314801e-06,4.556723818338942e-06,5.49290510627604e-06,5.6911500911987564e-06,4.634427282615107e-05,3.330680920842245e-06,0.2492307690000004
5.66325,2.533734862862772e-06,4.565257764508191e-06,5.49409516915229e-06,5.669855597676787e-06,4.749397667829575e-05,3.333143073867871e-06,0.2497499999999997
5.663769231,2.547906584736131e-06,4.581284129508191e-06,5.494030533857642e-06,5.654654513738587e-06,4.82497633014734e-05,3.3409480784001995e-06,0.25026923099999987
5.664288462,2.5689710324246755e-06,4.594452679913171e-06,5.493018909527783e-06,5.645946242187321e-06,4.880528536182655e-05,3.350627199802572e-06,0.25078846200000005
5.664807692,2.591567122538364e-06,4.593155049334526e-06,5.49287215567895e-06,5.641932081689932e-06,4.9312549469393614e-05,3.3551143283064486e-06,0.25130769200000014
5.665326923,2.612669572126734e-06,4.586982342165031e-06,5.494083400283882e-06,5.644871207678362e-06,4.979727130216775e-05,3.354781440511289e-06,0.2518269230000003
5.665846154,2.635461807185002e-06,4.595118161044868e-06,5.495493217799078e-06,5.661630476444079e-06,5.019979336527133e-05,3.3557411930715228e-06,0.2523461539999996
5.666365385,2.6618259453059666e-06,4.630875244730228e-06,5.4855590506384985e-06,5.697165743775133e-06,5.048110704702831e-05,3.360657103732391e-06,0.2528653849999998
5.666884615,2.6830799945529544e-06,4.699631797721141e-06,5.43229721317777e-06,5.74471021076904e-06,5.06599021793546e-05,3.371288016201688e-06,0.25338461499999987
5.667403846,2.691506989602413e-06,4.782174084066744e-06,5.318018328580255e-06,5.791127729722438e-06,5.076933553617497e-05,3.3956344538228646e-06,0.25390384600000004
5.667923077,2.692705826110582e-06,4.849407626153573e-06,5.1828619746208365e-06,5.832228467712235e-06,5.0824794837078086e-05,3.446822733841472e-06,0.2544230770000002
5.668442308,2.6930051911955344e-06,4.896038215953608e-06,5.087265080499744e-06,5.872916859551312e-06,5.0836745746851085e-05,3.5261876665130057e-06,0.2549423080000004
5.668961538,2.6935151120809707e-06,4.934625335029837e-06,5.050076056148614e-06,5.9151150262101866e-06,5.083007162108393e-05,3.61336431632394e-06,0.2554615379999996
5.669480769,2.694576219427412e-06,4.975968796883834e-06,5.053065560753463e-06,5.950182196183847e-06,5.083337669018389e-05,3.685880870326516e-06,0.2559807689999998
5.67,2.6963675782950293e-06,5.022687833943336e-06,5.0681302159251e-06,5.9693721065922e-06,5.086014407982144e-05,3.733336566985061e-06,0.25649999999999995
5.670519231,2.699325334831483e-06,5.064742812749529e-06,5.068093408905657e-06,5.976892121339886e-06,5.091104118961816e-05,3.751177424071205e-06,0.2570192310000001
5.671038462,2.702370889827517e-06,5.089834560093932e-06,5.042062895659657e-06,5.982192014527876e-06,5.098544437336094e-05,3.7504865686608575e-06,0.2575384620000003
5.671557692,2.7042726530998198e-06,5.100230023249793e-06,5.0082901119030856e-06,5.989685504661025e-06,5.108430309169426e-05,3.795387741535321e-06,0.2580576920000004
5.672076923,2.70598694654132e-06,5.106207210623465e-06,4.994308586632738e-06,5.997080149418629e-06,5.120850760103725e-05,3.982378500714924e-06,0.2585769229999997
5.672596154,2.710205381499128e-06,5.112805243188672e-06,5.005933785222472e-06,5.999707990828768e-06,5.13571164188439e-05,4.3089324321493966e-06,0.25909615399999986
5.673115385,2.7207414607076114e-06,5.117306777144887e-06,5.030052964465072e-06,5.998133446763045e-06,5.152636559345195e-05,4.638877844986328e-06,0.25961538500000003
5.673634615,2.740557638906057e-06,5.116995779259974e-06,5.058307893592139e-06,5.994874748449319e-06,5.171061020425674e-05,4.851991446387262e-06,0.2601346150000001
5.674153846,2.766466235296324e-06,5.118307031855584e-06,5.095964270022429e-06,5.990129602895251e-06,5.190202940021984e-05,4.941353470621145e-06,0.2606538460000003
5.674673077,2.7883824894011978e-06,5.1276800659344985e-06,5.150600169313837e-06,5.986176851647169e-06,5.209182481999366e-05,4.9656009777792525e-06,0.2611730769999996
5.675192308,2.800318825424476e-06,5.1426963642628604e-06,5.219610217216047e-06,5.985572504422082e-06,5.227504460071936e-05,4.970787782963679e-06,0.26169230799999976
5.675711538,2.8055456284639754e-06,5.158784602538229e-06,5.291468165381789e-06,5.98842576456659e-06,5.245187156666936e-05,4.972849516092249e-06,0.26221153799999986
5.676230769,2.808106504271779e-06,5.174839575035488e-06,5.357552439378592e-06,5.993425996514292e-06,5.2622580605326985e-05,4.975165545119327e-06,0.26273076900000003
5.67675,2.8092502147292026e-06,5.195464950167423e-06,5.418094139351242e-06,5.996664841548941e-06,5.278370805874595e-05,4.97821455158333e-06,0.2632500000000002
5.677269231,2.80886364354312e-06,5.224318143484244e-06,5.476575138723783e-06,5.995027867428059e-06,5.292942887922148e-05,4.981609834650416e-06,0.2637692310000004
5.677788462,2.807268975908418e-06,5.257135109648852e-06,5.532104783851426e-06,5.9902575715282025e-06,5.305422021801592e-05,4.985272630768171e-06,0.26428846199999967
5.678307692,2.806556725303956e-06,5.287192775866761e-06,5.57901867508422e-06,5.987305365973012e-06,5.3154880079387946e-05,4.989527184588728e-06,0.26480769199999976
5.678826923,2.8080457767718428e-06,5.31118743948969e-06,5.614881890059066e-06,5.991561656624121e-06,5.323212334383238e-05,4.994530262718396e-06,0.26532692299999994
5.679346154,2.8110168486777542e-06,5.329918749432043e-06,5.64520881831201e-06,6.005633698656251e-06,5.328942312325263e-05,4.99995487002372e-06,0.2658461540000001
5.679865385,2.8143508967397984e-06,5.347016562416645e-06,5.677591716734473e-06,6.0252245196728805e-06,5.332889872784344e-05,5.00519231878398e-06,0.2663653850000003
5.680384615,2.8174307042531594e-06,5.36722849034413e-06,5.71187062041107e-06,6.040778384452149e-06,5.33493411603244e-05,5.009786641711927e-06,0.2668846150000004
5.680903846,2.818163883810401e-06,5.393573505686535e-06,5.737843906840956e-06,6.046325261979347e-06,5.335076113383668e-05,5.013657713073543e-06,0.26740384599999967
5.681423077,2.814026330621184e-06,5.422479231804659e-06,5.749270365787349e-06,6.044501095937757e-06,5.334010472960632e-05,5.0169604101181625e-06,0.26792307699999984
5.681942308,2.8043333804622e-06,5.445510794972981e-06,5.751744844855058e-06,6.041341677748133e-06,5.3327438375069575e-05,5.019797968768927e-06,0.268442308
5.682461538,2.79293681355992e-06,5.460095220531826e-06,5.751851083207489e-06,6.039634924570285e-06,5.331850114563907e-05,5.022090973233548e-06,0.2689615380000001
5.682980769,2.7876165503423537e-06,5.47137643752496e-06,5.751319101807824e-06,6.039242663080468e-06,5.331663094950064e-05,5.023739134164904e-06,0.2694807690000003
5.6835,2.788828750407948e-06,5.485915091536584e-06,5.749453677248605e-06,6.039771886833126e-06,5.332946520736116e-05,5.024842651439641e-06,0.27000000000000046
5.684019231,2.790686489554067e-06,5.506928560147606e-06,5.746322254515134e-06,6.040302716566031e-06,5.336615960490001e-05,5.025631153946026e-06,0.27051923099999975
5.684538462,2.7911182995405767e-06,5.529211348587682e-06,5.743024939325869e-06,6.039512757844545e-06,5.342272519081354e-05,5.026228681187629e-06,0.2710384619999999
5.685057692,2.791127547419444e-06,5.54484892027756e-06,5.7404445808320604e-06,6.037481728999752e-06,5.348185630972494e-05,5.026612152050373e-06,0.271557692
5.685576923,2.790715902981956e-06,5.554297080220519e-06,5.741669079789706e-06,6.035503932500506e-06,5.353121101177099e-05,5.026773392776886e-06,0.2720769230000002
5.686096154,2.787626406381092e-06,5.564279544192786e-06,5.752984346596936e-06,6.034490001022498e-06,5.356867030224228e-05,5.026797928847702e-06,0.27259615400000037
5.686615385,2.782714367510216e-06,5.581982236602683e-06,5.779709958261676e-06,6.03434287454219e-06,5.359407830275187e-05,5.026799835675908e-06,0.27311538499999966
5.687134615,2.7834843135871207e-06,5.611550359498628e-06,5.82176013740555e-06,6.034413887750174e-06,5.360695049000479e-05,5.026888345532827e-06,0.27363461499999975
5.687653846,2.793447235495166e-06,5.650370980880543e-06,5.877124716342144e-06,6.03417871917197e-06,5.3610547724468574e-05,5.027201975167399e-06,0.2741538459999999
5.688173077,2.8066154007045445e-06,5.6906498620637545e-06,5.947817653595267e-06,6.033711689420655e-06,5.361072519598747e-05,5.0278798449722175e-06,0.2746730770000001
5.688692308,2.818810275712483e-06,5.724042982778262e-06,6.037431742050057e-06,6.033078468283554e-06,5.36108195953352e-05,5.028912574420409e-06,0.2751923080000003
5.689211538,2.832883920446331e-06,5.746120386567183e-06,6.143920882766835e-06,6.031868333374736e-06,5.3610749393594905e-05,5.030181209929601e-06,0.27571153800000037
5.689730769,2.852752190163737e-06,5.758089774201506e-06,6.259750468777087e-06,6.029034754528263e-06,5.361007257914079e-05,5.031687731957894e-06,0.27623076899999965
5.69025,2.8745090720457004e-06,5.765761709235622e-06,6.376937209057102e-06,6.022488480671027e-06,5.3609450630476254e-05,5.033564046999374e-06,0.27674999999999983
5.690769231,2.889211129370377e-06,5.776625631913305e-06,6.48669213665145e-06,6.011483259183856e-06,5.361046567666317e-05,5.035889875418338e-06,0.277269231
5.691288462,2.8960593207360864e-06,5.793339761240748e-06,6.579917054070473e-06,5.999290768034796e-06,5.36218046712756e-05,5.03859273590064e-06,0.2777884620000002
5.691807692,2.8997839007863462e-06,5.810166581673921e-06,6.65318154033591e-06,5.992428007693402e-06,5.3679635664683934e-05,5.041550395764944e-06,0.2783076920000003
5.692326923,2.9027758852884216e-06,5.820085134299015e-06,6.710057990832798e-06,5.996210473218563e-06,5.38507130931474e-05,5.04473810144076e-06,0.27882692300000045
5.692846154,2.9041791760207603e-06,5.823877576815344e-06,6.756432063878385e-06,6.009493100125609e-06,5.411982518172241e-05,5.048184237687219e-06,0.27934615399999974
5.693365385,2.9041741119188794e-06,5.826955241726777e-06,6.796393108406283e-06,6.024845472610992e-06,5.428977009739983e-05,5.051833805002341e-06,0.2798653849999999
5.693884615,2.9051478338098157e-06,5.833105758409315e-06,6.82979228050914e-06,6.033004872844463e-06,5.428902907683194e-05,5.055560049133406e-06,0.280384615
5.694403846,2.906862261633532e-06,5.84316168471532e-06,6.854250185571774e-06,6.028424148743301e-06,5.449137895638944e-05,5.059319432011396e-06,0.2809038460000002
5.694923077,2.9083966151876564e-06,5.853568112229227e-06,6.869531623288097e-06,6.014847048270736e-06,5.519267559863038e-05,5.063205194782935e-06,0.28142307700000035
5.695442308,2.910331725244171e-06,5.861097937992934e-06,6.8770742642076e-06,6.00105963293846e-06,5.623047452857151e-05,5.06732050127182e-06,0.28194230799999964
5.695961538,2.9159292960605864e-06,5.868209946726268e-06,6.878398162313932e-06,5.991626542791717e-06,5.760977650558659e-05,5.071669475225399e-06,0.28246153799999973
5.696480769,2.9278695408233444e-06,5.879365940935835e-06,6.876347065852092e-06,5.986248907477058e-06,5.974677919436679e-05,5.076154732690969e-06,0.2829807689999999
5.697,2.9429305712175946e-06,5.895956273107533e-06,6.873600594497298e-06,5.983636766573779e-06,6.243942975521141e-05,5.080726560884878e-06,0.2835000000000001
5.697519231,2.9565242454951413e-06,5.915325305139982e-06,6.871064240996789e-06,5.984469770551338e-06,6.400134279897173e-05,5.085681729483038e-06,0.28401923100000026
5.698038462,2.9670102251481103e-06,5.9365786993660105e-06,6.8696112050622105e-06,5.987137604953201e-06,6.404662291474208e-05,5.091627826446562e-06,0.28453846200000044
5.698557692,2.974419601571715e-06,5.963302327391963e-06,6.869634782380193e-06,5.985942113911351e-06,6.480066526448272e-05,5.098993977375026e-06,0.28505769199999964
5.699076923,2.979400778305376e-06,5.995999733460256e-06,6.870078841260521e-06,5.979849799547948e-06,6.631347973313619e-05,5.107721714718541e-06,0.2855769229999998
5.699596154,2.9831161946641183e-06,6.024474667468909e-06,6.870166343307495e-06,5.972308242170109e-06,6.686013065675285e-05,5.117334879298124e-06,0.286096154
5.700115385,2.9866611705532494e-06,6.039321349826557e-06,6.870252557017068e-06,5.965388353718242e-06,6.686001928018118e-05,5.127112528801444e-06,0.28661538500000017
5.700634615,2.99047020725286e-06,6.043195171956332e-06,6.871042533017514e-06,5.9612055941868745e-06,6.710301545719097e-05,5.13589891756768e-06,0.28713461500000026
5.701153846,2.9937994060307496e-06,6.041032685876722e-06,6.872872567626585e-06,5.961197025244302e-06,6.740662651052428e-05,5.142509399756255e-06,0.28765384600000043
5.701673077,2.995097628739981e-06,6.032462150253037e-06,6.875313474216768e-06,5.964495559130177e-06,6.763518504643245e-05,5.147834684613625e-06,0.2881730769999997
5.702192308,2.993267313702335e-06,6.014531332613556e-06,6.876912271247391e-06,5.970393316756943e-06,6.788382867151426e-05,5.152567842884874e-06,0.2886923079999999
5.702711538,2.9896575040994166e-06,5.9920585336207456e-06,6.877039999384543e-06,5.977836676936321e-06,6.826965803456231e-05,5.152065092297558e-06,0.289211538
5.703230769,2.989202696216794e-06,5.975485915113912e-06,6.8775180490912e-06,5.985223974259887e-06,6.881689291247931e-05,5.141820597660784e-06,0.28973076900000017
5.70375,2.994084890296397e-06,5.964977583643816e-06,6.879046639865126e-06,5.991911940821106e-06,6.934718367278533e-05,5.125064203388242e-06,0.29025000000000034
5.704269231,3.0012197394496397e-06,5.955918336918697e-06,6.880988535466773e-06,5.997312311616097e-06,6.958483975578829e-05,5.10813788526801e-06,0.29076923099999963
5.704788462,3.009493034455636e-06,5.956156275572571e-06,6.884560839634226e-06,6.0008175412661e-06,6.95815613576616e-05,5.094029762642071e-06,0.2912884619999998
5.705307692,3.020371635936669e-06,5.980441080158607e-06,6.8899356442353456e-06,6.00027551010013e-06,6.970030969573797e-05,5.082897841572353e-06,0.2918076919999999
5.705826923,3.034060966837365e-06,6.030667516156744e-06,6.896186353582531e-06,5.989155502130856e-06,6.993849994668487e-05,5.074536097275819e-06,0.29232692300000007
5.706346154,3.0478026593511717e-06,6.093751663720326e-06,6.9028449399606165e-06,5.963902014956338e-06,7.004415652310169e-05,5.068975274766929e-06,0.29284615400000025
5.706865385,3.0577320917924417e-06,6.157089704413922e-06,6.907767489502384e-06,5.937672680303607e-06,7.005036712707246e-05,5.066035150534454e-06,0.2933653850000004
5.707384615,3.0627164507763752e-06,6.217964677500957e-06,6.90908081102564e-06,5.926693369804997e-06,7.004981833800087e-05,5.065138534632974e-06,0.2938846149999996
5.707903846,3.0643663812300158e-06,6.28012210610886e-06,6.908506655445824e-06,5.926670928628732e-06,7.008206354909326e-05,5.065535114624478e-06,0.2944038459999998
5.708423077,3.0645597376662742e-06,6.3468221450880695e-06,6.908639063813007e-06,5.926332073833274e-06,7.021762639430712e-05,5.066655962891751e-06,0.294923077
5.708942308,3.0645050942524303e-06,6.4193096410401615e-06,6.908687728355465e-06,5.922767347590437e-06,7.045666887850432e-05,5.0682938503846366e-06,0.29544230800000015
5.709461538,3.064744294042615e-06,6.498351654318686e-06,6.907741458621131e-06,5.916485721530957e-06,7.077402960942624e-05,5.070345739326344e-06,0.29596153800000025
5.709980769,3.064745387300572e-06,6.5820201374018895e-06,6.90891620494535e-06,5.909983531906195e-06,7.119749448238695e-05,5.0717030645650245e-06,0.2964807690000004
5.7105,3.065152074413861e-06,6.663251459693881e-06,6.91617976783606e-06,5.906994289594666e-06,7.174454246153512e-05,5.068743972349199e-06,0.2969999999999997
5.711019231,3.073465304235899e-06,6.735770114938198e-06,6.929164661005405e-06,5.907427809347638e-06,7.234636405700003e-05,5.05643269514398e-06,0.2975192309999999
5.711538462,3.101611758759765e-06,6.802568675625334e-06,6.9440799572752274e-06,5.907718661116783e-06,7.292463570227936e-05,5.032745303633198e-06,0.29803846200000006
5.712057692,3.151979802162275e-06,6.874294806166624e-06,6.957931146259995e-06,5.907603221763407e-06,7.350635912061379e-05,5.001483088625547e-06,0.29855769200000015
5.712576923,3.2130361926672764e-06,6.95857997967112e-06,6.969341764953564e-06,5.90815468234481e-06,7.41954044510923e-05,4.969931458456363e-06,0.2990769230000003
5.713096154,3.274700712552468e-06,7.05006857294118e-06,6.977892789545165e-06,5.907257311689024e-06,7.504883719712626e-05,4.944093567376532e-06,0.2995961539999996
5.713615385,3.3437912006899824e-06,7.134909655794575e-06,6.983085753569302e-06,5.905043974993691e-06,7.596846267465231e-05,4.926042080435049e-06,0.3001153849999998
5.714134615,3.4479007673054307e-06,7.205882561889555e-06,6.9838829244413385e-06,5.905396135825447e-06,7.675966439627056e-05,4.91458997420683e-06,0.3006346149999999
5.714653846,3.6223177113263766e-06,7.268422530430374e-06,6.980618102869031e-06,5.912282765814401e-06,7.730856913785016e-05,4.907362789030674e-06,0.30115384600000006
5.715173077,3.8643055418778456e-06,7.33605742136574e-06,6.9762674766242326e-06,5.926340093408578e-06,7.764335932691597e-05,4.902323486289533e-06,0.30167307700000023
5.715692308,4.1142466772595234e-06,7.420782008877128e-06,6.973536794287339e-06,5.938403092495682e-06,7.785548541534824e-05,4.898334156138441e-06,0.3021923080000004
5.716211538,4.317013887419713e-06,7.526436562520067e-06,6.972695429187344e-06,5.937498811890675e-06,7.802011708972885e-05,4.89502847423722e-06,0.3027115379999996
5.716730769,4.465389242946037e-06,7.649664502558877e-06,6.974167959018967e-06,5.927608415442655e-06,7.817160713223603e-05,4.892348724206673e-06,0.3032307689999998
5.71725,4.575024560149372e-06,7.779334271162448e-06,6.978553065401636e-06,5.923212643796937e-06,7.830937665201746e-05,4.890160707963503e-06,0.30374999999999996
5.717769231,4.654438566442694e-06,7.900174187504307e-06,6.984955235009902e-06,5.933203178707414e-06,7.842079321085549e-05,4.888207908619049e-06,0.30426923100000014
5.718288462,4.705862420741908e-06,8.003269749386413e-06,6.993283716948697e-06,5.954640646763863e-06,7.850354221359696e-05,4.886319059896186e-06,0.3047884620000003
5.718807692,4.7381435261634775e-06,8.089069864668651e-06,7.005204467109179e-06,5.9765203801082086e-06,7.856717728173828e-05,4.884485187872758e-06,0.3053076920000004
5.719326923,4.765328715564565e-06,8.162083753641581e-06,7.021218900124222e-06,5.987345920748119e-06,7.862307941662025e-05,4.8827599745177615e-06,0.3058269229999997
5.719846154,4.799009661301545e-06,8.225274422499985e-06,7.038460438865456e-06,5.980366363028127e-06,7.867594384130905e-05,4.881327835723142e-06,0.30634615399999987
5.720365385,4.839554566945775e-06,8.277960285075882e-06,7.053958082097281e-06,5.957120863887505e-06,7.871681587140168e-05,4.880675332375701e-06,0.30686538500000005
5.720884615,4.871480052427019e-06,8.315308260206626e-06,7.068558689677646e-06,5.928589845085672e-06,7.872965155203674e-05,4.88130265088302e-06,0.30738461500000014
5.721403846,4.883875406372723e-06,8.331591735476117e-06,7.085032994755178e-06,5.906351198524659e-06,7.872776984833342e-05,4.88285284643624e-06,0.3079038460000003
5.721923077,4.884711814290845e-06,8.332382521370193e-06,7.104437643554578e-06,5.89300577500212e-06,7.874555169274355e-05,4.883620689474163e-06,0.3084230769999996
5.722442308,4.883637056976151e-06,8.337717120625043e-06,7.124687369312754e-06,5.885020729708649e-06,7.875379445588167e-05,4.881060407522199e-06,0.3089423079999998
5.722961538,4.883045720896875e-06,8.364171394525244e-06,7.141691796875467e-06,5.879414924232607e-06,7.876518381037115e-05,4.872509734753477e-06,0.30946153799999987
5.723480769,4.883208000918326e-06,8.41305068165568e-06,7.1537417706455385e-06,5.87540981351955e-06,7.894404406890599e-05,4.855384409303537e-06,0.30998076900000004
5.724,4.884751637046066e-06,8.47869400248707e-06,7.163510532387025e-06,5.873318109268691e-06,7.922893627352176e-05,4.827050679037507e-06,0.3105000000000002
5.724519231,4.916823035686635e-06,8.556677954270887e-06,7.172436234372823e-06,5.872645209218188e-06,7.9336879078612e-05,4.7853421803827884e-06,0.3110192310000004
5.725038462,5.040070728314507e-06,8.643390237668331e-06,7.179676986072382e-06,5.87096489122074e-06,7.933525184909193e-05,4.730879658348409e-06,0.3115384619999997
5.725557692,5.264841075143767e-06,8.73748116623883e-06,7.186487703046149e-06,5.864365486247647e-06,7.947278118502242e-05,4.670275130751215e-06,0.3120576919999998
5.726076923,5.536483565219768e-06,8.84561478696866e-06,7.1955773835640265e-06,5.850866529265426e-06,7.977690239269727e-05,4.615851278982666e-06,0.31257692299999995
5.726596154,5.830869104921878e-06,8.982429328591936e-06,7.208360583437006e-06,5.834941544681534e-06,8.02221043987601e-05,4.57911185318288e-06,0.3130961540000001
5.727115385,6.1911732684278365e-06,9.15692565263897e-06,7.222510702818062e-06,5.824709609011864e-06,8.087704007534219e-05,4.562806259080792e-06,0.3136153850000003
5.727634615,6.675232498030743e-06,9.354301488180094e-06,7.23352273936778e-06,5.8258823438593535e-06,8.175914727367314e-05,4.559712538528101e-06,0.3141346150000004
5.728153846,7.264631770145128e-06,9.536303916493922e-06,7.2393545918821025e-06,5.841044731288931e-06,8.269104245797798e-05,4.559907999301502e-06,0.3146538459999997
5.728673077,7.830140983075875e-06,9.666373881909734e-06,7.241185201723179e-06,5.868645789554516e-06,8.348788200306768e-05,4.558691064343243e-06,0.31517307699999986
5.729192308,8.226777064772846e-06,9.736292375067265e-06,7.241270109027802e-06,5.903170578439376e-06,8.418607103360591e-05,4.556751759694666e-06,0.31569230800000003
5.729711538,8.414278171841326e-06,9.766380917639954e-06,7.241824508849673e-06,5.941229789183185e-06,8.498105940581755e-05,4.555453528051713e-06,0.3162115380000001
5.730230769,8.465951814446491e-06,9.78118580316249e-06,7.244806044935828e-06,5.9827222358945005e-06,8.606962294121999e-05,4.554840154818091e-06,0.3167307690000003
5.73075,8.471682931313713e-06,9.797060877864528e-06,7.2493371419297425e-06,6.023468254243665e-06,8.750664896451113e-05,4.554386049197263e-06,0.3172499999999996
5.731269231,8.471589945723662e-06,9.842128426837636e-06,7.251285725528345e-06,6.05370769172391e-06,8.914747298393955e-05,4.553426735407464e-06,0.31776923099999976
5.731788462,8.475681851139567e-06,9.974579324080456e-06,7.249167258593212e-06,6.066883532518844e-06,9.071455262420996e-05,4.551240594493463e-06,0.31828846199999994
5.732307692,8.498040341309336e-06,1.0231513159388211e-05,7.24499235890597e-06,6.066138020633136e-06,9.192165754538728e-05,4.547141685667274e-06,0.31880769200000003
5.732826923,8.559049766205814e-06,1.053618132440554e-05,7.240652974451551e-06,6.060416338461539e-06,9.264197049414724e-05,4.540593515457472e-06,0.3193269230000002
5.733346154,8.649737553986074e-06,1.0751721635133473e-05,7.238037926301812e-06,6.055703926470343e-06,9.298583718608388e-05,4.53178917899822e-06,0.3198461540000004
5.733865385,8.736240050884948e-06,1.0846706546230637e-05,7.23627892718317e-06,6.051191748347048e-06,9.315669730726214e-05,4.52214764089947e-06,0.32036538499999967
5.734384615,8.80908441842875e-06,1.0888321302844858e-05,7.232450036830391e-06,6.04286667741207e-06,9.329231076828322e-05,4.513475554580357e-06,0.32088461499999976
5.734903846,8.885815135623409e-06,1.0935180787875531e-05,7.230531197058585e-06,6.03053042082259e-06,9.343773287574736e-05,4.506628438573644e-06,0.32140384599999994
5.735423077,8.983430873095056e-06,1.1015716068615777e-05,7.237495708031879e-06,6.017879816468606e-06,9.355868913274891e-05,4.5014870318968165e-06,0.3219230770000001
5.735942308,9.09115133060088e-06,1.1093900405870904e-05,7.2502761423598915e-06,6.007094777612944e-06,9.360833439113969e-05,4.497778550041642e-06,0.3224423080000003
5.736461538,9.168618747421215e-06,1.1116162984687089e-05,7.25984764642568e-06,5.998302080688596e-06,9.35890021221609e-05,4.495411831517112e-06,0.3229615380000004
5.736980769,9.193981495500828e-06,1.111497624401045e-05,7.263161320957876e-06,5.993707724976175e-06,9.351683366390958e-05,4.494226090884191e-06,0.32348076899999967
5.7375,9.194086393890748e-06,1.1135449586007325e-05,7.26341139630503e-06,5.997755704158968e-06,9.338966382220993e-05,4.493834155585756e-06,0.32399999999999984
5.738019231,9.200588602947578e-06,1.1164796944625338e-05,7.262343223515023e-06,6.008776182267e-06,9.31997440345902e-05,4.493801570774595e-06,0.324519231
5.738538462,9.210571937617202e-06,1.118671636920293e-05,7.25937643495917e-06,6.0155843247844575e-06,9.293767637367713e-05,4.493806079352936e-06,0.3250384620000002
5.739057692,9.215723935812209e-06,1.1203685355176314e-05,7.257185797727712e-06,6.006562587412368e-06,9.259573217473882e-05,4.493637929560616e-06,0.3255576920000003
5.739576923,9.22144939445005e-06,1.1216797437441144e-05,7.258487717805041e-06,5.977123195533904e-06,9.21690282869382e-05,4.493149352345689e-06,0.32607692300000046
5.740096154,9.243800975356892e-06,1.12229198019667e-05,7.2612746454162545e-06,5.930148374313178e-06,9.165892003526412e-05,4.4921819514694166e-06,0.32659615399999975
5.740615385,9.303746670163607e-06,1.1224613299450451e-05,7.2645267571306845e-06,5.873243689949737e-06,9.11668065634822e-05,4.490536617069635e-06,0.3271153849999999
5.741134615,9.372417151832086e-06,1.1226046579666884e-05,7.271028575460711e-06,5.811681021350351e-06,9.085920406595488e-05,4.48808722371771e-06,0.327634615
5.741653846,9.39367066704216e-06,1.122963955547892e-05,7.282579379620453e-06,5.745156708525041e-06,9.071495223305657e-05,4.484948617720858e-06,0.3281538460000002
5.742173077,9.3915434442498e-06,1.1230838862893244e-05,7.297948064279396e-06,5.671712473752253e-06,9.062850535662924e-05,4.48146132887508e-06,0.32867307700000037
5.742692308,9.429786754168526e-06,1.1233721167911993e-05,7.312819796814668e-06,5.59340585835594e-06,9.063018791335236e-05,4.477977018799514e-06,0.32919230799999966
5.743211538,9.49671638175483e-06,1.1264954728141762e-05,7.322931862609505e-06,5.520019739706622e-06,9.082000116482394e-05,4.474695381436423e-06,0.32971153799999975
5.743730769,9.542926066322176e-06,1.1301593944526597e-05,7.3286427320103745e-06,5.463230806689694e-06,9.132645609884444e-05,4.471648720381208e-06,0.3302307689999999
5.74425,9.559893889441138e-06,1.1303917381002144e-05,7.332266449447293e-06,5.4255129800833015e-06,9.212844982434644e-05,4.468751688216462e-06,0.3307500000000001
5.744769231,9.562867363080774e-06,1.1335539352960872e-05,7.33511923486715e-06,5.400745170455447e-06,9.296830376562989e-05,4.465873282536448e-06,0.3312692310000003
5.745288462,9.560924142203277e-06,1.1460680333587286e-05,7.338043882454206e-06,5.3831523681691215e-06,9.361647990967228e-05,4.462949842777345e-06,0.33178846200000045
5.745807692,9.562259345825147e-06,1.1622788623286664e-05,7.341841863406841e-06,5.370578118353129e-06,9.40995573321708e-05,4.460141410791888e-06,0.33230769199999965
5.746326923,9.585401423865438e-06,1.1745508772063008e-05,7.350543580602116e-06,5.362612253433874e-06,9.452229772279852e-05,4.457774586239866e-06,0.33282692299999983
5.746846154,9.644383665968898e-06,1.1818432877200774e-05,7.367994091913281e-06,5.35839178183749e-06,9.480348351047472e-05,4.456040707150694e-06,0.333346154
5.747365385,9.73134722092916e-06,1.1861788889272972e-05,7.391327383932237e-06,5.35636354588845e-06,9.48905870210729e-05,4.454942395321767e-06,0.3338653850000002
5.747884615,9.831258174730803e-06,1.1887233017245346e-05,7.415480454284674e-06,5.356072006129518e-06,9.488120853280436e-05,4.4544876284878045e-06,0.3343846150000003
5.748403846,9.92858590725141e-06,1.1894727326860714e-05,7.438049806115151e-06,5.356647683436082e-06,9.48474059183662e-05,4.454710654621339e-06,0.33490384600000045
5.748923077,9.996151989711565e-06,1.1888515303913567e-05,7.461156910763276e-06,5.3544595357670286e-06,9.480044116042925e-05,4.455552322788976e-06,0.33542307699999974
5.749442308,1.001651541581568e-05,1.1889805530679477e-05,7.48927658859713e-06,5.34747506518837e-06,9.475978112403864e-05,4.4568405576772425e-06,0.3359423079999999
5.749961538,1.0016526089758038e-05,1.1916330705222503e-05,7.522398263495457e-06,5.3365392453599335e-06,9.480555461675676e-05,4.458398627790808e-06,0.336461538
5.750480769,1.002899857605654e-05,1.1950215876602238e-05,7.554690303340845e-06,5.320655736189514e-06,9.499354068211872e-05,4.4600734343585065e-06,0.3369807690000002
5.751,1.0049113528456032e-05,1.196291232545262e-05,7.580510491723999e-06,5.297160167156933e-06,9.520254644338848e-05,4.461643241487214e-06,0.33750000000000036
5.751519231,1.0067292227135469e-05,1.1959941219842335e-05,7.600436013367959e-06,5.268582657883018e-06,9.527908192263904e-05,4.4628590321471785e-06,0.33801923099999964
5.752038462,1.0090060316893282e-05,1.1957242710195643e-05,7.618621722286011e-06,5.246282503396117e-06,9.524591669150326e-05,4.46363106344346e-06,0.3385384619999998
5.752557692,1.0129918934342046e-05,1.1960335956007568e-05,7.633428776666997e-06,5.237408356654165e-06,9.520291088055032e-05,4.464032451892134e-06,0.3390576919999999
5.753076923,1.0199943268504545e-05,1.1980715897872185e-05,7.636177611474701e-06,5.23485198976344e-06,9.52147365201361e-05,4.464123121053372e-06,0.3395769230000001
5.753596154,1.0300006585669418e-05,1.2011592552108794e-05,7.624000514106024e-06,5.2286260336613024e-06,9.525754693079248e-05,4.4638664065132105e-06,0.34009615400000026
5.754115385,1.0413177922447432e-05,1.2026225815898976e-05,7.604689161728062e-06,5.213856117908474e-06,9.526325572855804e-05,4.4630987019343976e-06,0.34061538500000044
5.754634615,1.0522358832454e-05,1.2024118603479336e-05,7.588266637625267e-06,5.188917212772494e-06,9.529200366138089e-05,4.461495351057835e-06,0.34113461499999964
5.755153846,1.061966026804789e-05,1.2027536753391136e-05,7.5806784140927e-06,5.1558792291910745e-06,9.542787636247049e-05,4.458726615961636e-06,0.3416538459999998
5.755673077,1.0703883014580643e-05,1.204721872996647e-05,7.5797143047589346e-06,5.119748204255553e-06,9.551455422577411e-05,4.454703867555925e-06,0.342173077
5.756192308,1.0778425017217935e-05,1.2079544544828584e-05,7.580091724127643e-06,5.085006450399819e-06,9.53573365537326e-05,4.449548299717206e-06,0.34269230800000017
5.756711538,1.0848260165606206e-05,1.2120235495226548e-05,7.582926604630771e-06,5.053056439919499e-06,9.514822079147852e-05,4.443325671013008e-06,0.34321153800000026
5.757230769,1.09155991647552e-05,1.2169916529208104e-05,7.590465476079535e-06,5.024012224947079e-06,9.514591317124604e-05,4.435931163895286e-06,0.34373076900000044
5.75775,1.0976396054659996e-05,1.2232151811911318e-05,7.60054180034039e-06,4.9999942538064895e-06,9.519635919237124e-05,4.427308832669985e-06,0.3442499999999997
5.758269231,1.101986447708118e-05,1.2310525715015165e-05,7.610914389280151e-06,4.981571471500111e-06,9.518587305172074e-05,4.417781936784795e-06,0.3447692309999999
5.758788462,1.1039237364281509e-05,1.2404722401567092e-05,7.621415221652055e-06,4.963281685726836e-06,9.519597552410275e-05,4.408048345291807e-06,0.3452884620000001
5.759307692,1.1042503165232888e-05,1.250778610673448e-05,7.633924057896561e-06,4.938804514777352e-06,9.515998119882677e-05,4.398748111576889e-06,0.34580769200000017
5.759826923,1.1042318333938693e-05,1.2608910005908996e-05,7.655228009066692e-06,4.90978843433815e-06,9.507841681313704e-05,4.390068599209185e-06,0.34632692300000034
5.760346154,1.1044191115599882e-05,1.2697860784497528e-05,7.695543815371671e-06,4.884948752320579e-06,9.502890288062234e-05,4.381808681760873e-06,0.34684615399999963
5.760865385,1.105263925956828e-05,1.2768162809777863e-05,7.759555979582241e-06,4.869713832327863e-06,9.500000138198322e-05,4.373799660246811e-06,0.3473653849999998
5.761384615,1.1081342661713233e-05,1.2819309470179814e-05,7.841513117548483e-06,4.862456904266118e-06,9.500707478787662e-05,4.366241362655439e-06,0.3478846149999999
5.761903846,1.114568117072846e-05,1.285528872949248e-05,7.92551157229186e-06,4.859887512313625e-06,9.504058234929724e-05,4.359574632735986e-06,0.3484038460000001
5.762423077,1.1234541998771544e-05,1.2880483374650048e-05,7.992779263281259e-06,4.860532810394724e-06,9.502824398784598e-05,4.35403024766361e-06,0.34892307700000025
5.762942308,1.132107502727579e-05,1.2896967345686292e-05,8.03440665899328e-06,4.864060538386935e-06,9.498421742114204e-05,4.349422406360234e-06,0.3494423080000004
5.763461538,1.140383985101368e-05,1.2904544866628575e-05,8.054738883076754e-06,4.869823706999238e-06,9.498612148289178e-05,4.3453945248571465e-06,0.34996153799999963
5.763980769,1.150470552943665e-05,1.290525295832006e-05,8.063466874419063e-06,4.875872138187429e-06,9.501332597271516e-05,4.34183792754524e-06,0.3504807689999998
5.7645,1.1632563505749698e-05,1.29041997266207e-05,8.067309223850989e-06,4.878675427953536e-06,9.501562025583844e-05,4.338965712455428e-06,0.351
5.765019231,1.174992431353908e-05,1.2904550699402048e-05,8.068611813182845e-06,4.876568098136185e-06,9.503708399461846e-05,4.336893515842816e-06,0.35151923100000015
5.765538462,1.1809554422742925e-05,1.2906194497209106e-05,8.068570765721818e-06,4.872920966501547e-06,9.51353683514306e-05,4.335426159633305e-06,0.35203846200000033
5.766057692,1.181929315508061e-05,1.2903982209032091e-05,8.076332400475555e-06,4.870876202795434e-06,9.52872261145192e-05,4.33431062617325e-06,0.3525576920000004
5.766576923,1.1819778322131829e-05,1.2910070977148031e-05,8.116673758250773e-06,4.870782475205614e-06,9.543042971270258e-05,4.33346551569261e-06,0.3530769229999997
5.767096154,1.1829441669941065e-05,1.296429974049822e-05,8.204998513462936e-06,4.874714905831114e-06,9.553733537022531e-05,4.332933385691288e-06,0.3535961539999999
5.767615385,1.1844847349702864e-05,1.3066792340315658e-05,8.309275774843724e-06,4.885795959794208e-06,9.56192747094443e-05,4.332684688761041e-06,0.35411538500000006
5.768134615,1.1864604525294015e-05,1.316282768009969e-05,8.37173937495013e-06,4.906963185689403e-06,9.568609818913512e-05,4.3326076046019184e-06,0.35463461500000015
5.768653846,1.1889055573091357e-05,1.322219326915617e-05,8.374567308290158e-06,4.942737010655948e-06,9.570887176838824e-05,4.332663340156201e-06,0.35515384600000033
5.769173077,1.1908817662793862e-05,1.3257786112724768e-05,8.35662707313168e-06,4.995083054693415e-06,9.56613077079597e-05,4.332907007297818e-06,0.3556730769999996
5.769692308,1.191420457815494e-05,1.3286710381258874e-05,8.359857306983626e-06,5.056040270676945e-06,9.56072055023602e-05,4.333423926072291e-06,0.3561923079999998
5.770211538,1.1913099433171657e-05,1.331231815069323e-05,8.383164294785707e-06,5.111709520264136e-06,9.56162980146809e-05,4.334314018143875e-06,0.3567115379999999
5.770730769,1.1916888111482075e-05,1.3327571837374998e-05,8.399860466495037e-06,5.155300134907276e-06,9.562654999985083e-05,4.335651266650146e-06,0.35723076900000006
5.77125,1.1921594527457182e-05,1.333068206314198e-05,8.394033279033219e-06,5.189696292663509e-06,9.55625040993318e-05,4.337405383172669e-06,0.35775000000000023
5.771769231,1.1921306530450862e-05,1.3329493333696123e-05,8.365943424832124e-06,5.219417623649671e-06,9.545188137013072e-05,4.339405263018432e-06,0.3582692310000004
5.772288462,1.1917812482680963e-05,1.3329192894972036e-05,8.32015066289124e-06,5.244797538003069e-06,9.530965928061323e-05,4.341388239709852e-06,0.3587884619999997
5.772807692,1.191236773183874e-05,1.3329352099216686e-05,8.260005017162923e-06,5.263444197490654e-06,9.512854473167264e-05,4.343143933180608e-06,0.3593076919999998
5.773326923,1.1904699163311424e-05,1.3329320106956444e-05,8.189390759014236e-06,5.27496061096805e-06,9.497661852051402e-05,4.344610476859414e-06,0.35982692299999997
5.773846154,1.1896833845321258e-05,1.3329181706158155e-05,8.114845506089532e-06,5.279180657785845e-06,9.490157418948608e-05,4.345742434412756e-06,0.36034615400000014
5.774365385,1.189028136151383e-05,1.3328858505374848e-05,8.044621616503822e-06,5.270935555339023e-06,9.48491517018508e-05,4.346287494719501e-06,0.3608653850000003
5.774884615,1.1884475322173196e-05,1.3328718673165956e-05,7.988027510166763e-06,5.246678716193902e-06,9.477328355734045e-05,4.345820068778819e-06,0.3613846150000004
5.775403846,1.187956802100038e-05,1.3334882286635655e-05,7.954869197326133e-06,5.217252034653682e-06,9.469309481364838e-05,4.3439840887134e-06,0.3619038459999997
5.775923077,1.1877022864692742e-05,1.3364067256966407e-05,7.947583050973159e-06,5.199136076594317e-06,9.463681857598444e-05,4.340572687683067e-06,0.36242307699999987
5.776442308,1.187898886929128e-05,1.3425036478851443e-05,7.955065957915156e-06,5.195650857418811e-06,9.460497840260446e-05,4.335534436856548e-06,0.36294230800000005
5.776961538,1.188681439059694e-05,1.3493081150567077e-05,7.962601355281422e-06,5.198509570984811e-06,9.45756747662282e-05,4.329046836568361e-06,0.36346153800000014
5.777480769,1.1896819932934553e-05,1.3534033673551407e-05,7.964616621184746e-06,5.200834042216601e-06,9.45490589912378e-05,4.321428205112037e-06,0.3639807690000003
5.778,1.1900960207502104e-05,1.3545761448568064e-05,7.963821331941494e-06,5.203395270733643e-06,9.458286823034696e-05,4.3129584032047855e-06,0.3644999999999996
5.778519231,1.1901352446571556e-05,1.354658747488598e-05,7.963156405079102e-06,5.212611262932733e-06,9.469912484098213e-05,4.303779000552261e-06,0.3650192309999998
5.779038462,1.191517519133042e-05,1.3546251986777524e-05,7.966029567838415e-06,5.241001237803156e-06,9.481575994307366e-05,4.293840205842991e-06,0.36553846199999995
5.779557692,1.1944836830150449e-05,1.3545838926122349e-05,7.98019501458294e-06,5.298347398458805e-06,9.487411460559178e-05,4.282939488933237e-06,0.36605769200000005
5.780076923,1.1971153449874583e-05,1.3545540642720303e-05,8.007186004982221e-06,5.378162575802608e-06,9.489570063681813e-05,4.270911681812864e-06,0.3665769230000002
5.780596154,1.198701853054903e-05,1.354660959957763e-05,8.034566033297771e-06,5.46916759298703e-06,9.490506735539708e-05,4.257849640448119e-06,0.3670961540000004
5.781115385,1.2000952378246284e-05,1.3551108635341131e-05,8.050690923632109e-06,5.568978900484289e-06,9.490447974078896e-05,4.244245537230892e-06,0.3676153849999997
5.781634615,1.2021235852637847e-05,1.3558415426323464e-05,8.055802597961217e-06,5.673574468848653e-06,9.493659825850431e-05,4.230933716752894e-06,0.3681346149999998
5.782153846,1.2044767390043754e-05,1.3564962781814725e-05,8.055662753003421e-06,5.76440702189164e-06,9.515925854958086e-05,4.218624078016172e-06,0.36865384599999995
5.782673077,1.2057376303686416e-05,1.3568678862717605e-05,8.054336657196449e-06,5.822922588732971e-06,9.566442621523766e-05,4.207312410502944e-06,0.3691730770000001
5.783192308,1.2057405421614362e-05,1.356994079848466e-05,8.054359389850129e-06,5.851233251616161e-06,9.628920640592554e-05,4.19630298468079e-06,0.3696923080000003
5.783711538,1.205766646171862e-05,1.356921304456848e-05,8.056765425666748e-06,5.863741541085059e-06,9.682866127839444e-05,4.184990634095696e-06,0.3702115380000004
5.784230769,1.2063736617703398e-05,1.3565980120380992e-05,8.060836847532123e-06,5.870452711293332e-06,9.721658712510174e-05,4.173743255730986e-06,0.3707307689999997
5.78475,1.2072311992024284e-05,1.3559735750248678e-05,8.066327304232623e-06,5.8742176357943205e-06,9.74306085070318e-05,4.163964866044068e-06,0.37124999999999986
5.785269231,1.2081918056933345e-05,1.355111732757932e-05,8.07538079483383e-06,5.87393549711742e-06,9.744427295759697e-05,4.156962229168365e-06,0.37176923100000003
5.785788462,1.2096008859587904e-05,1.3541262372685869e-05,8.09154417656319e-06,5.868445773964773e-06,9.732995808763937e-05,4.152842121409258e-06,0.3722884620000002
5.786307692,1.2122550207230676e-05,1.3531002824394708e-05,8.117819010179351e-06,5.859532481323339e-06,9.714249995736527e-05,4.1508237314762256e-06,0.3728076920000003
5.786826923,1.217039245556821e-05,1.3521496894190072e-05,8.15722675737624e-06,5.851462021800037e-06,9.672360789559294e-05,4.150238752739522e-06,0.3733269229999996
5.787346154,1.2236840549324936e-05,1.3514360646403308e-05,8.20656120511105e-06,5.847165410786808e-06,9.601477224277956e-05,4.150807672191711e-06,0.37384615399999976
5.787865385,1.230113213295183e-05,1.3509839254643582e-05,8.257673842552722e-06,5.846184515976015e-06,9.527819843483418e-05,4.151707674298296e-06,0.37436538499999994
5.788384615,1.2342742153852426e-05,1.350552623295806e-05,8.310387570541546e-06,5.84657425196405e-06,9.473829709997434e-05,4.150337200163973e-06,0.37488461500000003
5.788903846,1.2360658002609063e-05,1.3498139662264875e-05,8.366003972690152e-06,5.846924572950839e-06,9.436964748531058e-05,4.144293990877407e-06,0.3754038460000002
5.789423077,1.2366933613023945e-05,1.3487924845515134e-05,8.412385908138007e-06,5.846229854993403e-06,9.406401973372668e-05,4.136356125485287e-06,0.3759230770000004
5.789942308,1.237439359971202e-05,1.3478778316707549e-05,8.435671103791011e-06,5.842193204777066e-06,9.376128050132612e-05,4.132358151611407e-06,0.37644230799999967
5.790461538,1.2399132361456643e-05,1.347213183196426e-05,8.440379765540614e-06,5.829350844326432e-06,9.347085952320743e-05,4.132188734634324e-06,0.37696153799999976
