Time,Rectus Femoris,Vastus Medialis,Vastus Lateralis,Bicep Femoris,Tibialis,Gastrocnemius Medialis,Trimmed Time
5.376634615,1.6521262568043344e-06,2.693004389304288e-06,1.661477987778837e-06,1.6359148267326965e-06,6.794282012455183e-05,3.3303537403068413e-06,0.0002596150000009345
5.377153846,1.64845066941225e-06,2.693767593949522e-06,1.6608128799474022e-06,1.6317689779624012e-06,6.793428477404715e-05,3.3364768566423013e-06,0.0007788460000002217
5.377673077,1.6447769328658613e-06,2.6951164482602096e-06,1.6602889708400725e-06,1.6299216767726644e-06,6.791981499136815e-05,3.333567275295792e-06,0.0012980770000003972
5.378192308,1.6442167198934203e-06,2.6940175596651155e-06,1.658688444328192e-06,1.6278517390885665e-06,6.790535062067173e-05,3.328002269658061e-06,0.0018173080000005726
5.378711538,1.644367098914402e-06,2.692410678936185e-06,1.6588648092894102e-06,1.6233298992779428e-06,6.78961957790497e-05,3.3261935106784035e-06,0.0023365380000006652
5.379230769,1.6437157212325673e-06,2.6906305820549384e-06,1.656575674833108e-06,1.6182708164642067e-06,6.789000783684326e-05,3.3297662263027037e-06,0.0028557690000008407
5.37975,1.6447524455674158e-06,2.690072686067506e-06,1.652864356684011e-06,1.617049200637344e-06,6.788613135245923e-05,3.3369602875780738e-06,0.003375000000000128
5.380269231,1.6458920709943843e-06,2.6905298823596414e-06,1.6525421426751755e-06,1.6185899873684308e-06,6.790028062233777e-05,3.3404934152480764e-06,0.0038942310000003033
5.380788462,1.6447060719705469e-06,2.6901949037563423e-06,1.6513034112472751e-06,1.619245412487753e-06,6.795560568886158e-05,3.340566358114296e-06,0.004413462000000479
5.381307692,1.644073436960521e-06,2.6899263663757345e-06,1.6469046184549531e-06,1.61812482530016e-06,6.802332725509932e-05,3.341640914249752e-06,0.004932692000000571
5.381826923,1.6458677374205137e-06,2.690527117417752e-06,1.643636871375161e-06,1.6170510841376333e-06,6.804035571078997e-05,3.341423322102169e-06,0.005451923000000747
5.382346154,1.6474361680677849e-06,2.6915644926882563e-06,1.6419801442648226e-06,1.617096832157923e-06,6.803045873588309e-05,3.3392886530676857e-06,0.005971154000000922
5.382865385,1.645047356496905e-06,2.694036605084307e-06,1.6388529368487855e-06,1.6174500525186508e-06,6.804907797830995e-05,3.336760189641759e-06,0.0064903850000002095
5.383384615,1.639076945008045e-06,2.6976003311302443e-06,1.6295950337227083e-06,1.6177321195523368e-06,6.808640918534839e-05,3.3331480440641133e-06,0.007009615000000302
5.383903846,1.6344135672136538e-06,2.69997914504664e-06,1.6149757978502057e-06,1.6191921178460855e-06,6.812031232476028e-05,3.3277323733977827e-06,0.0075288460000004775
5.384423077,1.6328571326882236e-06,2.7008747306099915e-06,1.6042462237593884e-06,1.6239811295890435e-06,6.81369395869933e-05,3.3223166909163225e-06,0.008048077000000653
5.384942308,1.6326114711775828e-06,2.70165670756264e-06,1.6018935519097558e-06,1.6288123885553546e-06,6.814485749873661e-05,3.3206075134398465e-06,0.008567308000000828
5.385461538,1.6326168605043666e-06,2.70361762376314e-06,1.6052137367511856e-06,1.6196652781343517e-06,6.802362732531935e-05,3.321819365220764e-06,0.009086538000000921
5.385980769,1.63241134151863e-06,2.707823471088136e-06,1.610402324636852e-06,1.5864883755685665e-06,6.736243014306306e-05,3.3196393601926487e-06,0.009605769000000208
5.3865,1.6317468251208175e-06,2.7130324097012868e-06,1.613424845940187e-06,1.545669915951642e-06,6.585446293222094e-05,3.3096113458486766e-06,0.010125000000000384
5.387019231,1.6307320839027454e-06,2.7150609541110254e-06,1.6135169885377974e-06,1.5243933773540638e-06,6.388688563444088e-05,3.289424160101948e-06,0.010644231000000559
5.387538462,1.6302943750333565e-06,2.712061344613411e-06,1.614013330163567e-06,1.5223257570152544e-06,6.24368912910582e-05,3.254398738059389e-06,0.011163462000000735
5.388057692,1.6306539727769903e-06,2.7071508052646405e-06,1.6158706758558284e-06,1.5210473164463282e-06,6.202129424053311e-05,3.1966177485694438e-06,0.011682692000000827
5.388576923,1.6303544293587026e-06,2.704764038861841e-06,1.6179850691479254e-06,1.5179497281521115e-06,6.201771075783765e-05,3.120947090490608e-06,0.012201923000000114
5.389096154,1.6287894954972377e-06,2.7058363123451223e-06,1.6235531579297512e-06,1.5180090256158554e-06,6.161115805406311e-05,3.060837922560817e-06,0.01272115400000029
5.389615385,1.6272920627937117e-06,2.7070260642231468e-06,1.6384128572470147e-06,1.5181002421732383e-06,6.0646694419538936e-05,3.0355190480272927e-06,0.013240385000000465
5.390134615,1.6260152300079707e-06,2.7061202852681376e-06,1.6599550711884468e-06,1.51777766462596e-06,5.919099126519484e-05,3.0379931544532485e-06,0.013759615000000558
5.390653846,1.6242848160088064e-06,2.705055137992248e-06,1.6711138756831588e-06,1.5190520842426534e-06,5.7183721525601145e-05,3.056936024616732e-06,0.014278846000000733
5.391173077,1.6229280399635706e-06,2.70487416489901e-06,1.66081180799245e-06,1.5242733141720092e-06,5.492565685605497e-05,3.068405089727677e-06,0.014798077000000909
5.391692308,1.6217158394286269e-06,2.7061667866674963e-06,1.6378869349747404e-06,1.5389956985952046e-06,5.347055230232166e-05,3.0650985231819185e-06,0.015317308000000196
5.392211538,1.6208805708482595e-06,2.712496326310444e-06,1.6187113873259853e-06,1.5629341083572708e-06,5.358076321168349e-05,3.064900556408309e-06,0.01583653800000029
5.392730769,1.620843472920088e-06,2.7242513320210144e-06,1.6153276252967918e-06,1.5885891839943222e-06,5.4337741378507005e-05,3.076613888911781e-06,0.016355769000000464
5.39325,1.6193183623016835e-06,2.734936422518619e-06,1.619841621670281e-06,1.6085503553606706e-06,5.441090148743949e-05,3.096808130119754e-06,0.01687500000000064
5.393769231,1.6163542259836974e-06,2.736402669476622e-06,1.6205475992438516e-06,1.6198231265583014e-06,5.419480264821783e-05,3.1201481301797424e-06,0.017394231000000815
5.394288462,1.6097861214794026e-06,2.7300272090763846e-06,1.6205433823962634e-06,1.6221987784104996e-06,5.455932692044059e-05,3.137867199991597e-06,0.017913462000000102
5.394807692,1.5959381619406514e-06,2.72632418118695e-06,1.6175603871102125e-06,1.6197988842556129e-06,5.5014680831282186e-05,3.1451629418408675e-06,0.018432692000000195
5.395326923,1.5764050748935916e-06,2.726331996735865e-06,1.6128951956316243e-06,1.6175735023211127e-06,5.510672575212923e-05,3.144986624100517e-06,0.01895192300000037
5.395846154,1.5498536237098926e-06,2.724477833737173e-06,1.6134719444502014e-06,1.6160327786297592e-06,5.510595176991472e-05,3.140223317010849e-06,0.019471154000000546
5.396365385,1.52011501095038e-06,2.7221057592483606e-06,1.613184193701808e-06,1.615867087421584e-06,5.506230872287132e-05,3.137446052320331e-06,0.01999038500000072
5.396884615,1.502792954796623e-06,2.7201187999021144e-06,1.6089353002674802e-06,1.6174750267837469e-06,5.493361898850735e-05,3.141746911133526e-06,0.020509615000000814
5.397403846,1.5008954947126292e-06,2.721123231004317e-06,1.604893627094406e-06,1.6197886858270752e-06,5.482435406777424e-05,3.144775545397018e-06,0.0210288460000001
5.397923077,1.5016139076640602e-06,2.7260009169881107e-06,1.600224556352796e-06,1.6197152475466787e-06,5.470179037090317e-05,3.1410398563970825e-06,0.021548077000000276
5.398442308,1.5014555655224512e-06,2.727292782379206e-06,1.5943250754172314e-06,1.6159668659538303e-06,5.438711424585839e-05,3.1380782195246297e-06,0.022067308000000452
5.398961538,1.5017199947102287e-06,2.7244177340066546e-06,1.589772795119963e-06,1.6133259971208727e-06,5.373726183701914e-05,3.13927435128244e-06,0.022586538000000544
5.399480769,1.501417548609888e-06,2.7215669954481784e-06,1.5850767142792296e-06,1.6131781413255663e-06,5.299215050654435e-05,3.140785061388258e-06,0.02310576900000072
5.4,1.5013790944956372e-06,2.716419855608849e-06,1.579385444674641e-06,1.6133084367115888e-06,5.262880923656116e-05,3.145971194569381e-06,0.023625000000000895
5.400519231,1.4953759862761489e-06,2.70761962674774e-06,1.5729657219275314e-06,1.61646971523713e-06,5.261414041282557e-05,3.157635445644621e-06,0.024144231000000183
5.401038462,1.47983932627063e-06,2.6983342664067635e-06,1.565676412565384e-06,1.6242879990821315e-06,5.260099490941936e-05,3.1696823114960646e-06,0.024663462000000358
5.401557692,1.464500754873177e-06,2.691602326860051e-06,1.5618353696559911e-06,1.6346173513464017e-06,5.255791100813013e-05,3.178276790736108e-06,0.02518269200000045
5.402076923,1.4565151938891753e-06,2.6890206026635347e-06,1.5619754598122087e-06,1.6464128148902243e-06,5.255276140834576e-05,3.183092973264787e-06,0.025701923000000626
5.402596154,1.4523283763170517e-06,2.6893730470358708e-06,1.5665119558623073e-06,1.6586872824281306e-06,5.2555183084276114e-05,3.1821966921940795e-06,0.0262211540000008
5.403115385,1.443727078507244e-06,2.6860650146597797e-06,1.576253225653296e-06,1.6696549540255289e-06,5.2552892089260347e-05,3.1748567164755302e-06,0.026740385000000977
5.403634615,1.416546845860223e-06,2.6694907752678358e-06,1.5853596557365832e-06,1.6774652122435462e-06,5.2517601551185565e-05,3.164845862102592e-06,0.02725961500000018
5.404153846,1.3579137511643203e-06,2.633784840710908e-06,1.5894634379828712e-06,1.67967639265397e-06,5.2442930311284447e-05,3.156069186680108e-06,0.027778846000000357
5.404673077,1.2803198145414865e-06,2.5811322374896305e-06,1.5871221654674178e-06,1.6749479836914069e-06,5.238414505551435e-05,3.149327811442768e-06,0.028298077000000532
5.405192308,1.2217821522066629e-06,2.520144011055487e-06,1.58010532842655e-06,1.667579268282178e-06,5.236514983961893e-05,3.145608539694707e-06,0.028817308000000708
5.405711538,1.2017499140844838e-06,2.4596989160017388e-06,1.5748162977680455e-06,1.6637677168435991e-06,5.236498479107964e-05,3.14698211564917e-06,0.0293365380000008
5.406230769,1.2010529559576912e-06,2.407062552245133e-06,1.5726408973307793e-06,1.661546017696883e-06,5.237824423768734e-05,3.1526091570391915e-06,0.029855769000000976
5.40675,1.1992129975339617e-06,2.368201678208129e-06,1.5683614706210842e-06,1.6560485508459507e-06,5.2417884101336685e-05,3.156367879339648e-06,0.030375000000000263
5.407269231,1.1947004058221031e-06,2.3437781592370472e-06,1.5618786870892172e-06,1.6471546878202169e-06,5.245986042786754e-05,3.152313943006628e-06,0.03089423100000044
5.407788462,1.1901553481136177e-06,2.3276841866235986e-06,1.5555349112197069e-06,1.6359365681527975e-06,5.240360450210988e-05,3.1436940617318373e-06,0.031413462000000614
5.408307692,1.18317120666497e-06,2.31216172662773e-06,1.5479974326363285e-06,1.6240913746182397e-06,5.21603086963489e-05,3.1398620670004023e-06,0.031932692000000706
5.408826923,1.171897844790693e-06,2.2916956061185918e-06,1.5423665190322078e-06,1.6118724869264352e-06,5.184147727115641e-05,3.140367035053717e-06,0.03245192300000088
5.409346154,1.1621696081072186e-06,2.2717580463953294e-06,1.5413424593436651e-06,1.5990260509628674e-06,5.16915380917768e-05,3.139685233432368e-06,0.03297115400000017
5.409865385,1.1597370166503056e-06,2.269592681802223e-06,1.5420482030296528e-06,1.5907668086491916e-06,5.178457976305469e-05,3.139518036939261e-06,0.033490385000000344
5.410384615,1.1609736122124011e-06,2.279115361713926e-06,1.5448615275935104e-06,1.5908622967785488e-06,5.200673891359973e-05,3.139608250737673e-06,0.03400961500000044
5.410903846,1.161771444613862e-06,2.276921686728983e-06,1.548738100505975e-06,1.5924636637370557e-06,5.2239493829427e-05,3.140048377088119e-06,0.03452884600000061
5.411423077,1.161990791170877e-06,2.271819288912458e-06,1.5486773260044188e-06,1.5925485486360024e-06,5.242040775115282e-05,3.139787299600065e-06,0.03504807700000079
5.411942308,1.161727999870047e-06,2.275620703310292e-06,1.5472660343008843e-06,1.5990720902641731e-06,5.251417786236062e-05,3.1364268277930496e-06,0.03556730800000096
5.412461538,1.1614608889507623e-06,2.2771720328673877e-06,1.5486958438101503e-06,1.6107975453649037e-06,5.252319369745364e-05,3.1400735562246484e-06,0.03608653800000017
5.412980769,1.1607395257663826e-06,2.27713659937488e-06,1.5494223690378548e-06,1.6196696969431594e-06,5.253984159846328e-05,3.1557589852880705e-06,0.03660576900000034
5.4135,1.1587247860937635e-06,2.265520949648601e-06,1.5466300325268003e-06,1.62988448280921e-06,5.25823851129168e-05,3.17254094738315e-06,0.03712500000000052
5.414019231,1.157127605251427e-06,2.211554142556508e-06,1.5454066614417522e-06,1.6495024859427033e-06,5.258404967261216e-05,3.182894937167184e-06,0.037644231000000694
5.414538462,1.1564326348789928e-06,2.1256980774197014e-06,1.5480318072718456e-06,1.6718939633303262e-06,5.263576340910083e-05,3.187490113714845e-06,0.03816346200000087
5.415057692,1.152848650539201e-06,2.054769411530032e-06,1.5457669786502303e-06,1.682894117521863e-06,5.273319362667457e-05,3.186618800402665e-06,0.03868269200000096
5.415576923,1.1466549028031376e-06,2.0141619182538755e-06,1.5371810165544274e-06,1.683151031898103e-06,5.270462886622467e-05,3.1779572311451707e-06,0.03920192300000025
5.416096154,1.1437316706650806e-06,1.98748156330083e-06,1.5298929119375433e-06,1.6829534515033235e-06,5.266564055480796e-05,3.162770003263708e-06,0.039721154000000425
5.416615385,1.143365936156037e-06,1.9648691194635277e-06,1.5264304848648826e-06,1.6833228476996173e-06,5.275644881724663e-05,3.1474519660510058e-06,0.0402403850000006
5.417134615,1.1395007598270895e-06,1.949674243275639e-06,1.525041690096122e-06,1.6821101153147328e-06,5.282580160119233e-05,3.136462901829933e-06,0.04075961500000069
5.417653846,1.1328828998402758e-06,1.9437962741470616e-06,1.5238064386288813e-06,1.6819774383545083e-06,5.281851884397646e-05,3.1302916914175097e-06,0.04127884600000087
5.418173077,1.1277073075887834e-06,1.942370744304342e-06,1.5233167187139465e-06,1.6856385358739683e-06,5.273533072882637e-05,3.128115065961555e-06,0.041798077000000156
5.418692308,1.1252805094265306e-06,1.9425849546347225e-06,1.5240040840990162e-06,1.690196108685415e-06,5.247471373100652e-05,3.1294348665522067e-06,0.04231730800000033
5.419211538,1.1248646420839705e-06,1.9450202215980607e-06,1.5237046240703734e-06,1.6881090232460612e-06,5.213620373780523e-05,3.133377237395372e-06,0.042836538000000424
5.419730769,1.1250134231255262e-06,1.948545008213104e-06,1.5239969696497614e-06,1.6858591860149931e-06,5.194189176287583e-05,3.135988558330311e-06,0.0433557690000006
5.42025,1.1260703522924986e-06,1.950262880337561e-06,1.5275000725895144e-06,1.6984697428195212e-06,5.1901407329827335e-05,3.1335088337677764e-06,0.043875000000000774
5.420769231,1.1277233414248602e-06,1.953292555900821e-06,1.5294635597831205e-06,1.716463527008423e-06,5.1902136284303096e-05,3.1289091473362065e-06,0.04439423100000095
5.421288462,1.1285816067082515e-06,1.9545288069181183e-06,1.525920404056601e-06,1.7239252667190705e-06,5.190026191683009e-05,3.1280246556032456e-06,0.04491346200000024
5.421807692,1.1269331819415796e-06,1.9470912310640527e-06,1.518501390173516e-06,1.7220640893064515e-06,5.190094213223462e-05,3.131130939355029e-06,0.04543269200000033
5.422326923,1.1177609583458408e-06,1.936640858112624e-06,1.5126243736441217e-06,1.7144195534865274e-06,5.185924857193889e-05,3.132312183829489e-06,0.045951923000000505
5.422846154,1.0971912603149164e-06,1.9307368402313787e-06,1.5138783278890882e-06,1.706304318114845e-06,5.16447635589832e-05,3.1275524550095053e-06,0.04647115400000068
5.423365385,1.0695865030539458e-06,1.9272189753117376e-06,1.5171577505184535e-06,1.7032329063479084e-06,5.119052456577546e-05,3.121469949987985e-06,0.046990385000000856
5.423884615,1.0449934004958829e-06,1.9222654823455074e-06,1.5127743697706276e-06,1.7029305814760722e-06,5.065035946331966e-05,3.11930730267525e-06,0.04750961500000095
5.424403846,1.031778259315056e-06,1.918132098633128e-06,1.503841135329141e-06,1.7023298176872174e-06,5.025823560200392e-05,3.119191637303115e-06,0.048028846000000236
5.424923077,1.0292881356401944e-06,1.9158515030116616e-06,1.5021084045698926e-06,1.7033021143219643e-06,5.010762317273987e-05,3.1193617483843195e-06,0.04854807700000041
5.425442308,1.0293589718685935e-06,1.916055209639588e-06,1.5058740112250216e-06,1.7086014911683874e-06,5.010458934813433e-05,3.1210350560189544e-06,0.04906730800000059
5.425961538,1.0306646229586553e-06,1.91892324492884e-06,1.5037486235351882e-06,1.7164331148949363e-06,5.002209058472794e-05,3.1228252165599743e-06,0.04958653800000068
5.426480769,1.0351769772863828e-06,1.918879919931192e-06,1.4893885586733517e-06,1.7220287434200648e-06,4.9732128430285454e-05,3.1218317804938947e-06,0.050105769000000855
5.427,1.0363447607355904e-06,1.9159847785209354e-06,1.470940985511658e-06,1.723878255683667e-06,4.94208900129224e-05,3.120006757716197e-06,0.05062500000000014
5.427519231,1.0374410983141647e-06,1.9197666293969453e-06,1.466027592326355e-06,1.724082093824838e-06,4.927633029816396e-05,3.1175957538630467e-06,0.05114423100000032
5.428038462,1.0461688396662774e-06,1.9300550831459795e-06,1.4640251656181056e-06,1.723815096826417e-06,4.922641336937523e-05,3.113460692840916e-06,0.05166346200000049
5.428557692,1.0527578595613927e-06,1.938331943160687e-06,1.4494579249020769e-06,1.7242090794000468e-06,4.914997692610091e-05,3.111517986768335e-06,0.052182692000000586
5.429076923,1.0529160856779162e-06,1.9411378847260704e-06,1.4390645780261938e-06,1.725472082061483e-06,4.890157103428129e-05,3.111671765409e-06,0.05270192300000076
5.429596154,1.0529684016928528e-06,1.9410237652821897e-06,1.4385254686862855e-06,1.72481580193269e-06,4.844020263734798e-05,3.1085314260180704e-06,0.053221154000000936
5.430115385,1.0529561379013027e-06,1.9363849969320577e-06,1.438120426195788e-06,1.7217011911019903e-06,4.799259756658416e-05,3.099690313162845e-06,0.053740385000000224
5.430634615,1.053771180762527e-06,1.914618353503408e-06,1.4394427408715829e-06,1.721850317753351e-06,4.773449974827335e-05,3.087788139103787e-06,0.054259615000000316
5.431153846,1.054980298335734e-06,1.877350675107832e-06,1.4335607481535114e-06,1.7322397959636092e-06,4.761173650797609e-05,3.0748122790091127e-06,0.05477884600000049
5.431673077,1.0545430225037811e-06,1.8502169443833848e-06,1.416759365725544e-06,1.7488913927537532e-06,4.7516247709196346e-05,3.0589492725280057e-06,0.05529807700000067
5.432192308,1.05437030608303e-06,1.8448480505063907e-06,1.406727652506001e-06,1.7582310578107984e-06,4.7368269885649085e-05,3.037925395886185e-06,0.05581730800000084
5.432711538,1.0547006789748167e-06,1.8448589568380412e-06,1.405878635646632e-06,1.7573473772951752e-06,4.712958080621357e-05,3.014583034283895e-06,0.056336538000000935
5.433230769,1.0549817074446803e-06,1.8400078996710664e-06,1.4057851420137175e-06,1.7552046226985288e-06,4.688793609271877e-05,2.997298513700631e-06,0.05685576900000022
5.43375,1.0556758607706448e-06,1.8355331012009005e-06,1.4065932998810743e-06,1.7550331322841e-06,4.680357559514457e-05,2.990381007766366e-06,0.0573750000000004
5.434269231,1.0565694637072088e-06,1.8329219595884128e-06,1.4087984709493254e-06,1.7556726979704136e-06,4.679353706132178e-05,2.9922581650539525e-06,0.05789423100000057
5.434788462,1.0575002025253848e-06,1.8293398758608929e-06,1.4109950912458096e-06,1.7551606326262325e-06,4.652587801703484e-05,3.006211574953492e-06,0.05841346200000075
5.435307692,1.0578646262440318e-06,1.8227599547139551e-06,1.4125045441326168e-06,1.747899813505278e-06,4.597956430187181e-05,3.03552997004566e-06,0.05893269200000084
5.435826923,1.057863027670653e-06,1.8162901121821284e-06,1.4137404791424566e-06,1.735962913146001e-06,4.553553831591333e-05,3.0747715602437968e-06,0.05945192300000013
5.436346154,1.058992139067688e-06,1.8121446931646685e-06,1.4142214868611847e-06,1.7298764287918034e-06,4.536755891982937e-05,3.1133436993829907e-06,0.059971154000000304
5.436865385,1.0593309096680815e-06,1.8087382707941244e-06,1.414134772744258e-06,1.7308453320823336e-06,4.533085847267453e-05,3.1378323276898816e-06,0.06049038500000048
5.437384615,1.0563254340434988e-06,1.8020936232784063e-06,1.413431091076906e-06,1.7316723750073763e-06,4.531054401489607e-05,3.141674866773731e-06,0.06100961500000057
5.437903846,1.0540256172267864e-06,1.784486325748928e-06,1.4122825493203006e-06,1.7302936027098838e-06,4.526452577727311e-05,3.134321698057116e-06,0.06152884600000075
5.438423077,1.055580903017668e-06,1.7610644970855997e-06,1.4127557870411494e-06,1.7283037899042266e-06,4.5189218268967e-05,3.128362674541211e-06,0.06204807700000092
5.438942308,1.057777771962355e-06,1.7414445575134749e-06,1.4135224862943388e-06,1.7268943129264472e-06,4.512527978050447e-05,3.126104431430442e-06,0.06256730800000021
5.439461538,1.05870803006178e-06,1.7241932953287043e-06,1.4130279024863645e-06,1.7255000691130772e-06,4.509158668284173e-05,3.123202093044455e-06,0.0630865380000003
5.439980769,1.0589914508280294e-06,1.7053874099460807e-06,1.412595306342784e-06,1.7231267829534732e-06,4.5074760421235605e-05,3.1168123285589094e-06,0.06360576900000048
5.4405,1.0597248839844909e-06,1.688776684069975e-06,1.4126254614083022e-06,1.7209315328771546e-06,4.506340398195783e-05,3.111109267701093e-06,0.06412500000000065
5.441019231,1.0620011669700873e-06,1.6795864848054628e-06,1.4138043462890235e-06,1.7197799306028442e-06,4.505693974557337e-05,3.102816930944403e-06,0.06464423100000083
5.441538462,1.064878428962791e-06,1.6752009951845585e-06,1.4193183365360428e-06,1.7197380261218718e-06,4.505693079525407e-05,3.075278639367262e-06,0.06516346200000012
5.442057692,1.066200999020653e-06,1.6719278846641591e-06,1.4303017067323575e-06,1.7213101954365908e-06,4.50584006579165e-05,3.032506793057747e-06,0.06568269200000021
5.442576923,1.0653103531115328e-06,1.6701943781163748e-06,1.4396729510790286e-06,1.722925670281687e-06,4.505912197041144e-05,2.9985771491611785e-06,0.06620192300000038
5.443096154,1.0634939803649442e-06,1.6713583869533303e-06,1.4398573047156527e-06,1.7222840832060416e-06,4.505357779991986e-05,2.978775464459969e-06,0.06672115400000056
5.443615385,1.061540337660182e-06,1.673204187406847e-06,1.4334807473127356e-06,1.721750988471649e-06,4.501604138481861e-05,2.967102042509837e-06,0.06724038500000074
5.444134615,1.058838094016071e-06,1.6728804771451716e-06,1.4272317422398332e-06,1.7223233443777985e-06,4.493409994993681e-05,2.959729213089706e-06,0.06775961500000083
5.444653846,1.0547637229903452e-06,1.6715017926455113e-06,1.4237325132329875e-06,1.7198377417179094e-06,4.482952384122017e-05,2.951669054235897e-06,0.06827884600000012
5.445173077,1.050735064027115e-06,1.6736286557651717e-06,1.4229083447942943e-06,1.7108300013769865e-06,4.4704244716621e-05,2.946145958882693e-06,0.06879807700000029
5.445692308,1.0494837230903856e-06,1.679690311229415e-06,1.4231531403421778e-06,1.6964870858852253e-06,4.449779784997117e-05,2.9436971033660877e-06,0.06931730800000047
5.446211538,1.0498484385647629e-06,1.6812757043536003e-06,1.423035374897088e-06,1.681451178123978e-06,4.4126968485872266e-05,2.9395229764113957e-06,0.06983653800000056
5.446730769,1.0498500235206197e-06,1.68300682904161e-06,1.4233610570647666e-06,1.6690815714585118e-06,4.369780376310132e-05,2.937349624577841e-06,0.07035576900000073
5.44725,1.0500645831467117e-06,1.6990417824830658e-06,1.4245473992516717e-06,1.660415705914077e-06,4.353522472484515e-05,2.939145952715861e-06,0.07087500000000091
5.447769231,1.0512418836281713e-06,1.718294595058444e-06,1.424395519697183e-06,1.6560637799136825e-06,4.351412696140795e-05,2.937760664691037e-06,0.0713942310000002
5.448288462,1.0537648683382078e-06,1.725160713783029e-06,1.4206083480775717e-06,1.6549539854709157e-06,4.296964046948952e-05,2.9263986646457117e-06,0.07191346200000037
5.448807692,1.0552052544597162e-06,1.7253716104936802e-06,1.4153844195806868e-06,1.65554872142682e-06,4.1843318337777206e-05,2.904131088702897e-06,0.07243269200000046
5.449326923,1.0547631521727253e-06,1.7253741336398096e-06,1.4135474761790735e-06,1.6580413696883982e-06,4.0889545920986e-05,2.8786711437795982e-06,0.07295192300000064
5.449846154,1.0549339583485646e-06,1.7243771504133422e-06,1.4134292480612497e-06,1.6606340939079235e-06,4.0545042193816047e-05,2.863955173850479e-06,0.07347115400000082
5.450365385,1.0557166786604888e-06,1.720209430172892e-06,1.4101026733873186e-06,1.662933455147697e-06,4.053021015389258e-05,2.865408820372387e-06,0.0739903850000001
5.450884615,1.0563144129873598e-06,1.7134128708296163e-06,1.4058487368006292e-06,1.6670676403697278e-06,4.047920745118076e-05,2.8708587120935777e-06,0.0745096150000002
5.451403846,1.0578332010925808e-06,1.7076021490047311e-06,1.4053649020913488e-06,1.6708764288934891e-06,4.035667146008804e-05,2.866531961652638e-06,0.07502884600000037
5.451923077,1.06052911186322e-06,1.7053058129723823e-06,1.4083078198861447e-06,1.6729587836149286e-06,4.0306665084274224e-05,2.8573601555919917e-06,0.07554807700000055
5.452442308,1.0602716039868498e-06,1.708105171374207e-06,1.408645718878617e-06,1.6737955195418954e-06,4.030044325697412e-05,2.8512909827322102e-06,0.07606730800000072
5.452961538,1.0563873079851389e-06,1.7128316107331274e-06,1.4028180460852153e-06,1.673624992608431e-06,4.0146286713088585e-05,2.8443767569492023e-06,0.07658653800000081
5.453480769,1.054158263141788e-06,1.7132216018516892e-06,1.4037901963603842e-06,1.672909788167452e-06,3.983606121614547e-05,2.8412833564910733e-06,0.0771057690000001
5.454,1.0539072823142208e-06,1.7104345548590826e-06,1.4224160819275196e-06,1.6728499822878294e-06,3.956869871964375e-05,2.8428483840785677e-06,0.07762500000000028
5.454519231,1.0547247640973473e-06,1.7100159517643169e-06,1.438712235625139e-06,1.6754780842035151e-06,3.945387498167747e-05,2.841190997603448e-06,0.07814423100000045
5.455038462,1.0572797761113983e-06,1.7147093559820555e-06,1.4377186823862502e-06,1.6792543738737396e-06,3.94341066657323e-05,2.841013451973396e-06,0.07866346200000063
5.455557692,1.0590348995818117e-06,1.7247533393406343e-06,1.4342165419155225e-06,1.682027409469166e-06,3.943424202743592e-05,2.839781944707508e-06,0.07918269200000072
5.456076923,1.059131898663604e-06,1.7313299187360635e-06,1.4345357350305712e-06,1.6847025960197086e-06,3.943353428079106e-05,2.840324344456525e-06,0.0797019230000009
5.456596154,1.059436565973087e-06,1.729055710321343e-06,1.4333522380439166e-06,1.688145349906774e-06,3.943346183141116e-05,2.8559253791915238e-06,0.08022115400000018
5.457115385,1.059903738127445e-06,1.7265178195926131e-06,1.4343801341791412e-06,1.6930191431409846e-06,3.943384077992531e-05,2.875183896846425e-06,0.08074038500000036
5.457634615,1.0593819203836983e-06,1.7262657545622526e-06,1.436749054133871e-06,1.697783657520925e-06,3.943405060171644e-05,2.8845098147399005e-06,0.08125961500000045
5.458153846,1.05846771289821e-06,1.728570127929251e-06,1.4365547252975226e-06,1.6996544217931383e-06,3.943424778391972e-05,2.8894837122192734e-06,0.08177884600000063
5.458673077,1.0583547712977398e-06,1.7335108554115726e-06,1.4365927458465728e-06,1.6996650012741257e-06,3.943466179636928e-05,2.89645899621469e-06,0.0822980770000008
5.459192308,1.059181129110643e-06,1.7329539413599844e-06,1.4371734734741527e-06,1.6985893575070512e-06,3.943556273350581e-05,2.904946005121893e-06,0.08281730800000098
5.459711538,1.0599524264962108e-06,1.7240876357281314e-06,1.44139943742375e-06,1.6983344420871668e-06,3.943700711605463e-05,2.91066797604106e-06,0.08333653800000018
5.460230769,1.0568503741854426e-06,1.7189313217623144e-06,1.4494878458414818e-06,1.6993776231796638e-06,3.943853506622188e-05,2.911604716294855e-06,0.08385576900000036
5.46075,1.0500602694871463e-06,1.7320230249513116e-06,1.453738453897948e-06,1.6979910648369387e-06,3.9439508881837175e-05,2.910967794830717e-06,0.08437500000000053
5.461269231,1.0467777272944903e-06,1.7530913518654623e-06,1.4543735480446458e-06,1.6977303174517045e-06,3.94397770192833e-05,2.911754374606633e-06,0.08489423100000071
5.461788462,1.046706052343831e-06,1.763085446248223e-06,1.4519089551527804e-06,1.7006850147432305e-06,3.943968111064381e-05,2.9134347622617184e-06,0.08541346200000088
5.462307692,1.0399680608210455e-06,1.7639483786413544e-06,1.441090353959451e-06,1.7024922417700577e-06,3.943953934354972e-05,2.9135819957936817e-06,0.08593269200000098
5.462826923,1.0235041794209297e-06,1.763804593625373e-06,1.4247583907745665e-06,1.702527834292483e-06,3.943938108757583e-05,2.9135812117598157e-06,0.08645192300000026
5.463346154,1.0081899940434537e-06,1.764968640046485e-06,1.412447551301569e-06,1.7018896189783874e-06,3.943873057803193e-05,2.9203010112922524e-06,0.08697115400000044
5.463865385,1.0035064179200094e-06,1.7673304591403123e-06,1.4082825024910017e-06,1.700461813532987e-06,3.943710810658604e-05,2.931868809899801e-06,0.08749038500000061
5.464384615,1.0044177775957543e-06,1.7668143028427634e-06,1.4062532245337298e-06,1.698239306773972e-06,3.9434974327032834e-05,2.9370442508512315e-06,0.08800961500000071
5.464903846,1.0045894654167367e-06,1.7668939727801003e-06,1.3978725294957692e-06,1.6958335986438317e-06,3.943306647652522e-05,2.933730606111902e-06,0.08852884600000088
5.465423077,1.0045465411976107e-06,1.7696126867907462e-06,1.387821755199512e-06,1.6937956329352055e-06,3.9431541115628944e-05,2.9264891529628074e-06,0.08904807700000017
5.465942308,1.0027584957402431e-06,1.7644743373657414e-06,1.3852607801429482e-06,1.692304657837738e-06,3.943018141369146e-05,2.919601392553671e-06,0.08956730800000035
5.466461538,9.996264268237942e-07,1.7572270475155608e-06,1.3860621481633017e-06,1.6923501149506833e-06,3.942863831430538e-05,2.917126234967855e-06,0.09008653800000044
5.466980769,9.98410603510122e-07,1.7581565868340583e-06,1.3860770062976749e-06,1.6952326588091517e-06,3.942699112230344e-05,2.917636865127281e-06,0.09060576900000061
5.4675,9.983907568851253e-07,1.765711800970969e-06,1.3875904369390437e-06,1.6978582314410266e-06,3.942584328702565e-05,2.9193099621614064e-06,0.09112500000000079
5.468019231,9.98359662496648e-07,1.7870134528043805e-06,1.389115935594708e-06,1.695920557258462e-06,3.94252388450493e-05,2.9257854116583124e-06,0.09164423100000096
5.468538462,9.98376652709324e-07,1.8156218012346563e-06,1.3890540969035924e-06,1.6916521469963791e-06,3.942441851752562e-05,2.9404038834185457e-06,0.09216346200000025
5.469057692,9.981507113417374e-07,1.834120283317068e-06,1.38895846441369e-06,1.690136263562006e-06,3.942230829057362e-05,2.9589991955914155e-06,0.09268269200000034
5.469576923,9.975101182502405e-07,1.8435867808185632e-06,1.388348397289414e-06,1.697100765596095e-06,3.941846968626005e-05,2.970658270846818e-06,0.09320192300000052
5.470096154,9.977976831303958e-07,1.8486443841144772e-06,1.385458831414174e-06,1.713872844851484e-06,3.941389163293852e-05,2.9706430127864783e-06,0.0937211540000007
5.470615385,9.985739006028431e-07,1.8533705990307597e-06,1.3859040408103852e-06,1.7301720084730783e-06,3.940934567638863e-05,2.968727868238224e-06,0.09424038500000087
5.471134615,9.977669253882926e-07,1.8585134594401265e-06,1.3933012201317766e-06,1.73841399412994e-06,3.9404446968045445e-05,2.97318145350796e-06,0.09475961500000096
5.471653846,9.97093132479346e-07,1.853956724884661e-06,1.3973310018812275e-06,1.7409036217525e-06,3.939936662201086e-05,2.97686668341606e-06,0.09527884600000025
5.472173077,9.967044699707634e-07,1.8410434760866608e-06,1.3972471427826693e-06,1.7411594207233351e-06,3.939592876075916e-05,2.9761697832511908e-06,0.09579807700000043
5.472692308,9.94336950160369e-07,1.8319991866032872e-06,1.3992532868860738e-06,1.741348095108644e-06,3.93944703284248e-05,2.976544102080224e-06,0.0963173080000006
5.473211538,9.911940397710471e-07,1.8302143647468424e-06,1.396215517350198e-06,1.7420679683379002e-06,3.9392364566532e-05,2.973353686298728e-06,0.0968365380000007
5.473730769,9.887534132604163e-07,1.830697270666996e-06,1.3932568013996847e-06,1.7429345731498471e-06,3.93841008247434e-05,2.960867257640211e-06,0.09735576900000087
5.47425,9.870171081574838e-07,1.8282610294215703e-06,1.397816960526553e-06,1.7429442496185396e-06,3.937033543675949e-05,2.94472528763878e-06,0.09787500000000016
5.474769231,9.86483534481162e-07,1.8253229381101635e-06,1.3999927452489936e-06,1.7425457773904887e-06,3.936904935149716e-05,2.932008098199885e-06,0.09839423100000033
5.475288462,9.86587526858056e-07,1.824863482985326e-06,1.396033255265376e-06,1.746586820397534e-06,3.933301974205665e-05,2.925191900933855e-06,0.09891346200000051
5.475807692,9.863990762285043e-07,1.824732819971708e-06,1.3857234961521254e-06,1.756466455806319e-06,3.908916846874825e-05,2.923573662222074e-06,0.0994326920000006
5.476326923,9.862871755346755e-07,1.826570926088912e-06,1.36775759586273e-06,1.7635634471209866e-06,3.854122063660645e-05,2.923491287877376e-06,0.09995192300000078
5.476846154,9.863603663420863e-07,1.830735737625873e-06,1.3518170872013162e-06,1.7638369230305162e-06,3.789294574734237e-05,2.921173395328301e-06,0.10047115400000095
5.477365385,9.8460358390547e-07,1.8326014604583768e-06,1.3444277080293568e-06,1.7634608298328558e-06,3.750644078964447e-05,2.921834325125096e-06,0.10099038500000024
5.477884615,9.782670080883322e-07,1.83237038589202e-06,1.3416914122006676e-06,1.7651010867999296e-06,3.746372894150595e-05,2.9307860065533457e-06,0.10150961500000033
5.478403846,9.684265969400056e-07,1.83278711548771e-06,1.3430721534468791e-06,1.7668319261723282e-06,3.737112662040784e-05,2.9381034374881992e-06,0.1020288460000005
5.478923077,9.602929847523996e-07,1.8323182739119997e-06,1.3475528499629418e-06,1.766996468864061e-06,3.68217850805707e-05,2.937400587241472e-06,0.10254807700000068
5.479442308,9.574412785718323e-07,1.8281813210197029e-06,1.3499196216888713e-06,1.7643002285014577e-06,3.594887348013687e-05,2.9349864996392538e-06,0.10306730800000086
5.479961538,9.574680751155508e-07,1.8193329129685295e-06,1.3472297631444982e-06,1.7578409949135386e-06,3.523576092642306e-05,2.9342118126375137e-06,0.10358653800000095
5.480480769,9.54965492845301e-07,1.8078295647563388e-06,1.3396443912547804e-06,1.748187201165392e-06,3.490299917063966e-05,2.933995517497392e-06,0.10410576900000024
5.481,9.494032367848876e-07,1.798789644463372e-06,1.3323722530094092e-06,1.7371102431391506e-06,3.480872586221356e-05,2.9340702017001238e-06,0.10462500000000041
5.481519231,9.45932695386109e-07,1.7964202115238907e-06,1.3339139709812497e-06,1.7271313730860015e-06,3.478788792379679e-05,2.9337836317990326e-06,0.10514423100000059
5.482038462,9.46796023753718e-07,1.8010143892168544e-06,1.345156889691334e-06,1.7218547263340557e-06,3.478469684035536e-05,2.930485203793185e-06,0.10566346200000076
5.482557692,9.490236800335964e-07,1.8062882301111977e-06,1.3579816116374665e-06,1.7222348653366572e-06,3.4781782481715915e-05,2.926754520245209e-06,0.10618269200000086
5.483076923,9.492702617489884e-07,1.8043483959785072e-06,1.3653391249405275e-06,1.7239473339358094e-06,3.474796541102606e-05,2.9276376512128243e-06,0.10670192300000014
5.483596154,9.470239323961664e-07,1.7981409273969227e-06,1.3669511686445538e-06,1.722691696772986e-06,3.471160259860484e-05,2.929270329424921e-06,0.10722115400000032
5.484115385,9.435181743195328e-07,1.792052470367927e-06,1.367012935421521e-06,1.7206771831545948e-06,3.471168162039715e-05,2.9291946981413337e-06,0.1077403850000005
5.484634615,9.387744274941368e-07,1.7813499609440686e-06,1.366991741433772e-06,1.7206239570831114e-06,3.461805380840795e-05,2.9309994218329518e-06,0.10825961500000059
5.485153846,9.308524687248524e-07,1.7667444315116594e-06,1.3650268115353623e-06,1.718811422885626e-06,3.443592456797939e-05,2.932757192772555e-06,0.10877884600000076
5.485673077,9.183305630141146e-07,1.7566217308175976e-06,1.3653136115047692e-06,1.7138953929721016e-06,3.4350029632989145e-05,2.932850256970488e-06,0.10929807700000094
5.486192308,9.047584152136664e-07,1.752216861811293e-06,1.3749225362503003e-06,1.7110621900944671e-06,3.43477221938766e-05,2.932961923068175e-06,0.10981730800000022
5.486711538,8.906473200137884e-07,1.7483830750305755e-06,1.3897361388530918e-06,1.7119363130417396e-06,3.43397941547919e-05,2.933243093932501e-06,0.11033653800000032
5.487230769,8.733736194927344e-07,1.744320550187834e-06,1.4000804746808473e-06,1.7136391327123844e-06,3.4317550750102733e-05,2.9331254578152568e-06,0.11085576900000049
5.48775,8.547633821133254e-07,1.7393485173625688e-06,1.4039817096318462e-06,1.715346921834939e-06,3.428435623125885e-05,2.932649678945534e-06,0.11137500000000067
5.488269231,8.384964892328275e-07,1.7320087627247308e-06,1.404687133725732e-06,1.7154405775592836e-06,3.422552974426369e-05,2.9327817364882674e-06,0.11189423100000084
5.488788462,8.303982605964179e-07,1.7262625127337455e-06,1.4093303999935638e-06,1.711232256807069e-06,3.410837307477124e-05,2.933660324185476e-06,0.11241346200000013
5.489307692,8.307562113489527e-07,1.7238196165391302e-06,1.4279294407528596e-06,1.7093993414483777e-06,3.38964541353216e-05,2.93852930113682e-06,0.11293269200000022
5.489826923,8.309442035782774e-07,1.72211658226386e-06,1.452238382729937e-06,1.7149749320662674e-06,3.364464395163418e-05,2.945797665657575e-06,0.1134519230000004
5.490346154,8.257515864856189e-07,1.7185827811545035e-06,1.4652042808803282e-06,1.7183864905707508e-06,3.3539117524645125e-05,2.948253789868765e-06,0.11397115400000057
5.490865385,8.179864854003377e-07,1.7120702057335317e-06,1.4669445249078715e-06,1.7177642828183462e-06,3.353318631170506e-05,2.9478183193358e-06,0.11449038500000075
5.491384615,8.126833530297502e-07,1.7059917764470537e-06,1.462278341369753e-06,1.718157866314865e-06,3.3325481242832704e-05,2.9509954358003155e-06,0.11500961500000084
5.491903846,8.115113943781585e-07,1.7043159612589953e-06,1.4554856284957153e-06,1.716263919728696e-06,3.3099284274403363e-05,2.9581000050179207e-06,0.11552884600000013
5.492423077,8.135245565112865e-07,1.706065972348648e-06,1.4488359579455703e-06,1.7132257607947543e-06,3.312047747293954e-05,2.957989799605573e-06,0.1160480770000003
5.492942308,8.184285686205342e-07,1.705277453844928e-06,1.4409997602077654e-06,1.7116688270086793e-06,3.296004806297905e-05,2.9468428612421043e-06,0.11656730800000048
5.493461538,8.215014127139673e-07,1.7002559136193805e-06,1.4353083749154725e-06,1.709836417525381e-06,3.238765725848119e-05,2.939793214153614e-06,0.11708653800000057
5.493980769,8.16300100323807e-07,1.6959613962404943e-06,1.4340895259792118e-06,1.7085733879800338e-06,3.1799854871459664e-05,2.9409027022895404e-06,0.11760576900000075
5.4945,8.070387192223589e-07,1.6950836229638148e-06,1.4342467771295396e-06,1.7081871458006268e-06,3.146330017860744e-05,2.9418035594488536e-06,0.11812500000000092
5.495019231,8.018811519161567e-07,1.6959160839578517e-06,1.4320491064649256e-06,1.707825908761722e-06,3.132898351577254e-05,2.941723803104719e-06,0.11864423100000021
5.495538462,8.007597577697274e-07,1.6965766698437674e-06,1.4291319060679108e-06,1.7073726414101729e-06,3.1322455688398564e-05,2.941878621410217e-06,0.11916346200000039
5.496057692,8.003466442223534e-07,1.6973498145628588e-06,1.428766593456605e-06,1.7065435350937995e-06,3.139418095842145e-05,2.942475102438948e-06,0.11968269200000048
5.496576923,7.985574595692818e-07,1.6973822837277555e-06,1.4284611530425958e-06,1.7053331229600082e-06,3.1405215708053526e-05,2.9411469260220464e-06,0.12020192300000065
5.497096154,7.94387409587715e-07,1.6981105804185731e-06,1.4325970394674716e-06,1.7047469848304107e-06,3.119029838855395e-05,2.935634384689662e-06,0.12072115400000083
5.497615385,7.893360446656902e-07,1.699717671823531e-06,1.4560152883217869e-06,1.7047541338111786e-06,3.085103129950682e-05,2.9297424599766883e-06,0.12124038500000012
5.498134615,7.849046190734131e-07,1.6992285334472366e-06,1.4963759382297892e-06,1.7044114431360642e-06,3.064320017817007e-05,2.929489722649882e-06,0.12175961500000021
5.498653846,7.809233357403888e-07,1.70054371755245e-06,1.5304265750694274e-06,1.7058341630854156e-06,3.058908328880213e-05,2.9332749688455555e-06,0.12227884600000039
5.499173077,7.777172139113357e-07,1.6987268022269864e-06,1.5477520473862551e-06,1.7092249368990267e-06,3.057457640685007e-05,2.930189453106654e-06,0.12279807700000056
5.499692308,7.762933000067529e-07,1.6896340131825624e-06,1.5559448424509724e-06,1.7104135887503068e-06,3.054987752682119e-05,2.9204731161557767e-06,0.12331730800000074
5.500211538,7.759622908888607e-07,1.6863739457859518e-06,1.5615014244867628e-06,1.7100354905429438e-06,3.0509598819365732e-05,2.9166282632312966e-06,0.12383653800000083
5.500730769,7.743042441187078e-07,1.6887794836212697e-06,1.564656639991082e-06,1.7100189017951314e-06,3.048001940849666e-05,2.918967313651014e-06,0.12435576900000012
5.50125,7.710883102446434e-07,1.6903151646464158e-06,1.5646600453468876e-06,1.7104178976546277e-06,3.048305598113377e-05,2.9158163997407e-06,0.12487500000000029
5.501769231,7.692929089448111e-07,1.6905497491328498e-06,1.565891397164256e-06,1.713036771561108e-06,3.052490700501064e-05,2.898873865487552e-06,0.12539423100000047
5.502288462,7.70301657237697e-07,1.687498623577763e-06,1.5686859102005006e-06,1.7156034333076275e-06,3.061987164584197e-05,2.8738152192107284e-06,0.12591346200000064
5.502807692,7.724973332205995e-07,1.6881970914469388e-06,1.5688439373824518e-06,1.715746440288986e-06,3.075423046215362e-05,2.856207923718676e-06,0.12643269200000073
5.503326923,7.728794151208538e-07,1.6919014430067529e-06,1.5694067684103129e-06,1.7169842407130896e-06,3.0845371768105565e-05,2.8519116455595427e-06,0.1269519230000009
5.503846154,7.725116170767274e-07,1.692932961515327e-06,1.5713832956718678e-06,1.719522864588446e-06,3.08560107516553e-05,2.8530794893975302e-06,0.1274711540000002
5.504365385,7.73738584916193e-07,1.6928689435211237e-06,1.5718973823311128e-06,1.718118037100092e-06,3.0869054121801474e-05,2.8510067817688385e-06,0.12799038500000037
5.504884615,7.722726637719859e-07,1.6906511074752992e-06,1.5719148151060595e-06,1.7121318385505303e-06,3.090401239597452e-05,2.843073444617659e-06,0.12850961500000047
5.505403846,7.68124914125584e-07,1.6871896926124057e-06,1.5728058309761866e-06,1.7053016690482794e-06,3.087346871194701e-05,2.8336035725371617e-06,0.12902884600000064
5.505923077,7.668536421595278e-07,1.6876038970764091e-06,1.573457743238927e-06,1.7004777462783514e-06,3.074665353692479e-05,2.828318522475813e-06,0.12954807700000082
5.506442308,7.66391374667728e-07,1.692745286587168e-06,1.5734042895911829e-06,1.6982041227124293e-06,3.059113050941301e-05,2.827652361623961e-06,0.1300673080000001
5.506961538,7.618731765737142e-07,1.6967939193620035e-06,1.5736970939305294e-06,1.6965052727368529e-06,3.051172300291361e-05,2.835054928448418e-06,0.1305865380000002
5.507480769,7.571469690160332e-07,1.696074089136507e-06,1.574245519435244e-06,1.6959638093796337e-06,3.051436950011942e-05,2.8488477308616856e-06,0.13110576900000037
5.508,7.573442456032968e-07,1.6919693827411292e-06,1.574680053334383e-06,1.699971017464576e-06,3.047763656442749e-05,2.853186402517396e-06,0.13162500000000055
5.508519231,7.575883695166557e-07,1.6863640304539491e-06,1.5753154520871196e-06,1.7068937209339845e-06,3.0374443423354293e-05,2.85581903460946e-06,0.13214423100000072
5.509038462,7.555190105917771e-07,1.6810003088785952e-06,1.5764569295050953e-06,1.710224147245852e-06,3.030202453525884e-05,2.882028406853919e-06,0.1326634620000009
5.509557692,7.567260956356336e-07,1.6772693337884164e-06,1.578515237807147e-06,1.707015728879304e-06,3.0280461456677697e-05,2.920884957212887e-06,0.1331826920000001
5.510076923,7.579986074098808e-07,1.6746632859788418e-06,1.581524534860274e-06,1.700642849917942e-06,3.0259655738159298e-05,2.947308253454169e-06,0.13370192300000028
5.510596154,7.587410147589925e-07,1.6711903745386649e-06,1.583098564990124e-06,1.6961455960461584e-06,3.018378238379369e-05,2.962984217710863e-06,0.13422115400000045
5.511115385,7.672214193360544e-07,1.6644215353432135e-06,1.5801943014034557e-06,1.6960317506101463e-06,3.001146886134456e-05,2.985730624836225e-06,0.13474038500000063
5.511634615,7.765207977470482e-07,1.6556847741921877e-06,1.577181414626136e-06,1.6979024601185972e-06,2.979203793334026e-05,3.0266004508450277e-06,0.13525961500000072
5.512153846,7.773423734611528e-07,1.650867187814583e-06,1.5817145344341387e-06,1.6984880799799955e-06,2.9614773346055164e-05,3.0757955024298373e-06,0.1357788460000009
5.512673077,7.765518250683123e-07,1.6506183336121376e-06,1.5891780721453486e-06,1.6983505205493218e-06,2.9518380392778387e-05,3.109404884622378e-06,0.13629807700000018
5.513192308,7.788959394381764e-07,1.649876225265613e-06,1.5906926260412065e-06,1.6983537640592469e-06,2.951265921046492e-05,3.1194176335122763e-06,0.13681730800000036
5.513711538,7.806490080200248e-07,1.645795603133416e-06,1.5878739181286966e-06,1.6980365717186152e-06,2.9582542584069256e-05,3.1209644708141727e-06,0.13733653800000045
5.514230769,7.806947015182477e-07,1.641379843055152e-06,1.5837168060292194e-06,1.6973954294384737e-06,2.9601359410080968e-05,3.1215812982040422e-06,0.13785576900000063
5.51475,7.799023995063365e-07,1.6415208279692602e-06,1.5725052738448486e-06,1.697359952327508e-06,2.9397813521542923e-05,3.1208235489866262e-06,0.1383750000000008
5.515269231,7.797645981016459e-07,1.6470379984736573e-06,1.5513918329856642e-06,1.69897021473492e-06,2.904692768845716e-05,3.113054230208143e-06,0.13889423100000098
5.515788462,7.807711817843076e-07,1.6557380307709795e-06,1.5336244556078098e-06,1.701015882948288e-06,2.8873013058209187e-05,3.095236835384216e-06,0.13941346200000027
5.516307692,7.804697455617895e-07,1.662154102671614e-06,1.5285184936470702e-06,1.6976268206350936e-06,2.890006614848784e-05,3.0866222749823807e-06,0.13993269200000036
5.516826923,7.801714139724118e-07,1.6610467133905294e-06,1.5284477161115745e-06,1.6834933196299406e-06,2.827696161472072e-05,3.0919031096922078e-06,0.14045192300000053
5.517346154,7.800548364682236e-07,1.6509871012816516e-06,1.5285255654418083e-06,1.665457375170935e-06,2.606528743432299e-05,3.0857222028672294e-06,0.1409711540000007
5.517865385,7.782519596753406e-07,1.632207290038848e-06,1.5273490564674206e-06,1.6575099563202845e-06,2.340981183606027e-05,3.0535732857570584e-06,0.14149038500000088
5.518384615,7.781587475401594e-07,1.6136890647367355e-06,1.523726018939949e-06,1.6571422227072317e-06,2.2768631789159468e-05,3.009078577117873e-06,0.14200961500000098
5.518903846,7.763315113598153e-07,1.6064783509184976e-06,1.522222242408812e-06,1.6526835955320351e-06,2.3048978710748228e-05,2.973840743291408e-06,0.14252884600000026
5.519423077,7.722275560471901e-07,1.6060011296487446e-06,1.523263440769281e-06,1.6469287254702297e-06,2.19666176426755e-05,2.9543179152320782e-06,0.14304807700000044
5.519942308,7.719304282411322e-07,1.6057112154383644e-06,1.522384560471802e-06,1.6444589723017488e-06,2.05823972751867e-05,2.9455451186052728e-06,0.14356730800000062
5.520461538,7.71611673875637e-07,1.6057017850292776e-06,1.522715809570212e-06,1.6436739235618516e-06,2.025560941451888e-05,2.945393595939444e-06,0.1440865380000007
5.520980769,7.71592534975309e-07,1.6043866737868228e-06,1.5293725427272846e-06,1.643952931718679e-06,2.0309550233257132e-05,2.951485191217315e-06,0.14460576900000088
5.5215,7.714253355415177e-07,1.604869677964432e-06,1.5402565983933672e-06,1.642231021944871e-06,2.0325574867873095e-05,2.957654944549215e-06,0.14512500000000017
5.522019231,7.669737307346861e-07,1.611355044328791e-06,1.550019146200605e-06,1.6373714966811434e-06,2.0333350292574783e-05,2.9590728245348914e-06,0.14564423100000035
5.522538462,7.645083034902003e-07,1.6116351166423314e-06,1.5548188745591802e-06,1.6357472170985154e-06,2.035045478392224e-05,2.9566339058247355e-06,0.14616346200000052
5.523057692,7.666746727681314e-07,1.6021651870966343e-06,1.5560168890927291e-06,1.640637789565958e-06,2.057054576448136e-05,2.961279406584717e-06,0.14668269200000061
5.523576923,7.680514907521223e-07,1.6020378394486249e-06,1.5556939319956244e-06,1.646865933236028e-06,2.078326590838968e-05,2.979870160767872e-06,0.1472019230000008
5.524096154,7.674375863579726e-07,1.6078245673252375e-06,1.5538036108600724e-06,1.6508747415512343e-06,2.0753444960390463e-05,3.0006860260601138e-06,0.14772115400000096
5.524615385,7.678467972566587e-07,1.6029935323365272e-06,1.5535645353375605e-06,1.652702198275549e-06,2.1041200714154736e-05,3.011377832483275e-06,0.14824038500000025
5.525134615,7.68876700367801e-07,1.601478809130577e-06,1.5548945809936605e-06,1.65195912465005e-06,2.190299416727441e-05,3.0087614693191817e-06,0.14875961500000034
5.525653846,7.667923923769946e-07,1.613259514801296e-06,1.5550894693794472e-06,1.6486885998533351e-06,2.2679752569590017e-05,2.996610048536846e-06,0.14927884600000052
5.526173077,7.636321934714232e-07,1.620750400121126e-06,1.5543748033921304e-06,1.6423514468694734e-06,2.3029471134562247e-05,2.983969605939708e-06,0.1497980770000007
5.526692308,7.631154830183621e-07,1.6195987841884248e-06,1.553783602674095e-06,1.6315534797330391e-06,2.3145162023895548e-05,2.9750119660890387e-06,0.15031730800000087
5.527211538,7.626913398520052e-07,1.6194122106801132e-06,1.552871570343243e-06,1.6184534655501338e-06,2.320478428264076e-05,2.9684388618428237e-06,0.15083653800000096
5.527730769,7.608158655606714e-07,1.6195921680619603e-06,1.5527377289633147e-06,1.607788873954026e-06,2.3256009369231376e-05,2.964777646122947e-06,0.15135576900000025
5.52825,7.586411809013591e-07,1.6195934959635706e-06,1.5579321907144778e-06,1.5985844188211456e-06,2.329287959148515e-05,2.9691694604183454e-06,0.15187500000000043
5.528769231,7.569064891820561e-07,1.6234231193198268e-06,1.565290614104989e-06,1.5891943614219443e-06,2.3313725959823585e-05,2.982797160173033e-06,0.1523942310000006
5.529288462,7.563664113725199e-07,1.6280830620478998e-06,1.5717009462771972e-06,1.5843917997082852e-06,2.3329281673595475e-05,2.9987536417666883e-06,0.15291346200000078
5.529807692,7.563415155106816e-07,1.6283974012293549e-06,1.5791195146394458e-06,1.5842619990031477e-06,2.334874050177538e-05,3.0120549851106157e-06,0.15343269200000087
5.530326923,7.557817976163946e-07,1.6274307509783176e-06,1.5889628002692327e-06,1.5836572320366283e-06,2.337235542922857e-05,3.022499900389713e-06,0.15395192300000016
5.530846154,7.553000365260639e-07,1.6320852155766794e-06,1.6005297744556571e-06,1.5807399842821951e-06,2.338987372746837e-05,3.028704806602431e-06,0.15447115400000033
5.531365385,7.552700721546548e-07,1.642245833756358e-06,1.6086314265662163e-06,1.5781310874368712e-06,2.337244204433223e-05,3.027292930296945e-06,0.1549903850000005
5.531884615,7.555773991165565e-07,1.6533596848432548e-06,1.6118502584897017e-06,1.5782561477545414e-06,2.3280504631168514e-05,3.022270894495385e-06,0.1555096150000006
5.532403846,7.555416436284264e-07,1.6638217286752086e-06,1.6123001038297925e-06,1.5795763359324917e-06,2.312590268085133e-05,3.0228101937454336e-06,0.15602884600000078
5.532923077,7.537565556884308e-07,1.6732373809718072e-06,1.6112955034991284e-06,1.581340500365093e-06,2.298912795907941e-05,3.026135476253059e-06,0.15654807700000095
5.533442308,7.514470522768135e-07,1.6784630832901045e-06,1.6113603963486365e-06,1.583516562708083e-06,2.2939037885621996e-05,3.0263819464671936e-06,0.15706730800000024
5.533961538,7.509755553079906e-07,1.6788285446703865e-06,1.6122632975075135e-06,1.5858677882195054e-06,2.2941725272448818e-05,3.026117930793171e-06,0.15758653800000033
5.534480769,7.50612237603438e-07,1.6762799979228328e-06,1.6130951092877136e-06,1.5873161585123147e-06,2.2844587660160663e-05,3.025928061091445e-06,0.1581057690000005
5.535,7.483779288411349e-07,1.6661468293858463e-06,1.6133123914173192e-06,1.5840937936572305e-06,2.2513726998037928e-05,3.0273034927561368e-06,0.15862500000000068
5.535519231,7.463737924732066e-07,1.6554960176373537e-06,1.611259412056144e-06,1.5779606973158546e-06,2.1994123485379718e-05,3.03305226330007e-06,0.15914423100000086
5.536038462,7.471040532805661e-07,1.6549901992945826e-06,1.609347472355891e-06,1.57788453763135e-06,2.144675689731775e-05,3.0414310793148104e-06,0.15966346200000014
5.536557692,7.490765713221012e-07,1.6496437005871056e-06,1.6092673696503454e-06,1.5812886829986163e-06,2.1012690666910655e-05,3.0508249630726285e-06,0.16018269200000024
5.537076923,7.492982833137987e-07,1.639269930097719e-06,1.6093697297924516e-06,1.5755410115325618e-06,2.079580751460213e-05,3.0614817920922307e-06,0.1607019230000004
5.537596154,7.480364632352879e-07,1.637170482495182e-06,1.608397045336662e-06,1.5633056705125298e-06,2.079406394060017e-05,3.0704260244958453e-06,0.1612211540000006
5.538115385,7.47294371717913e-07,1.6367871059110943e-06,1.6052651335047234e-06,1.5517248707132453e-06,2.078700897006857e-05,3.072845941974981e-06,0.16174038500000076
5.538634615,7.473942743429636e-07,1.6365574232934033e-06,1.6035564819958327e-06,1.5371001271215372e-06,2.048951530375502e-05,3.074472659861836e-06,0.16225961500000086
5.539153846,7.456894743887761e-07,1.638213291871081e-06,1.6035548939784943e-06,1.5182145986265832e-06,1.984461160859255e-05,3.0847491894163937e-06,0.16277884600000014
5.539673077,7.401054996815207e-07,1.639250228214131e-06,1.6006009290605214e-06,1.4962856715543136e-06,1.9141156817658128e-05,3.09874155195706e-06,0.16329807700000032
5.540192308,7.363147783256352e-07,1.639289557291728e-06,1.5975864102895364e-06,1.4794367172216963e-06,1.881800262026984e-05,3.1012980991068425e-06,0.1638173080000005
5.540711538,7.36362804339146e-07,1.6381160754823931e-06,1.5972315377315043e-06,1.4752610436835718e-06,1.886474039873904e-05,3.091041680691632e-06,0.1643365380000006
5.541230769,7.311307832899215e-07,1.6392610062410077e-06,1.5974229714222713e-06,1.476116846698976e-06,1.8766488188522484e-05,3.081502650912177e-06,0.16485576900000076
5.54175,7.216590214984926e-07,1.6490371038561786e-06,1.5978309312650523e-06,1.4795667518508016e-06,1.8428073078438964e-05,3.076557892848845e-06,0.16537500000000094
5.542269231,7.179754781874135e-07,1.6715263460215782e-06,1.6021718175876956e-06,1.48606543275454e-06,1.8259401069912883e-05,3.0731371585135537e-06,0.16589423100000023
5.542788462,7.178947924059602e-07,1.6970892110654377e-06,1.6067477990493035e-06,1.4880712800505537e-06,1.8306387334266038e-05,3.072551472822855e-06,0.1664134620000004
5.543307692,7.191195832094271e-07,1.7118998637329144e-06,1.6060428122135495e-06,1.4839199087918935e-06,1.8330453802607534e-05,3.0736376569429005e-06,0.1669326920000005
5.543826923,7.25979786640332e-07,1.716146549705494e-06,1.6082938672296378e-06,1.4780135971743132e-06,1.831548363544461e-05,3.0715625446592703e-06,0.16745192300000067
5.544346154,7.338715103112061e-07,1.71561906410876e-06,1.612592006696007e-06,1.476208555320832e-06,1.833687350611888e-05,3.0654294185249776e-06,0.16797115400000084
5.544865385,7.36646813204047e-07,1.7119492939683777e-06,1.610410016126651e-06,1.474813805845022e-06,1.841686773167082e-05,3.064247095900886e-06,0.16849038500000013
5.545384615,7.353715686786924e-07,1.7046923081677252e-06,1.606206681150376e-06,1.4597957470176923e-06,1.858606000508376e-05,3.080232936917153e-06,0.16900961500000022
5.545903846,7.330549271539203e-07,1.6977450937486088e-06,1.604211942557792e-06,1.43879746149733e-06,1.8832824990462997e-05,3.1092734185944028e-06,0.1695288460000004
5.546423077,7.339032593504732e-07,1.696870710011782e-06,1.6030268960055892e-06,1.4315999868661625e-06,1.9001205343236314e-05,3.131115681790434e-06,0.17004807700000057
5.546942308,7.390420024742582e-07,1.6979806657623751e-06,1.60384783499015e-06,1.4338929887073008e-06,1.900899129156359e-05,3.1350208131133767e-06,0.17056730800000075
5.547461538,7.41885885283079e-07,1.697753377629512e-06,1.60589321264844e-06,1.4358218574952532e-06,1.9103090170239686e-05,3.128566412961047e-06,0.17108653800000084
5.547980769,7.390537548343801e-07,1.6993014338609611e-06,1.6040668465862777e-06,1.4390297973092624e-06,1.9420406361796928e-05,3.126811550570028e-06,0.17160576900000013
5.5485,7.34731097730569e-07,1.7022582415449658e-06,1.5999462278999628e-06,1.4440907276172043e-06,1.9685928683448067e-05,3.1412953567029827e-06,0.1721250000000003
5.549019231,7.318883318429912e-07,1.7037330719702609e-06,1.5991280490218404e-06,1.4497252664138743e-06,1.9743289605848465e-05,3.1689934506142224e-06,0.17264423100000048
5.549538462,7.309931951493967e-07,1.7036302571762102e-06,1.5982970034995962e-06,1.4543799704089174e-06,1.974262666535757e-05,3.194540323943412e-06,0.17316346200000066
5.550057692,7.334158202096264e-07,1.705359190402602e-06,1.592108866819076e-06,1.4538203523374927e-06,1.975661773461354e-05,3.209714163127597e-06,0.17368269200000075
5.550576923,7.440967000004406e-07,1.710655242424899e-06,1.5834807945506643e-06,1.445002367553569e-06,1.976356875753932e-05,3.217339851532234e-06,0.17420192300000092
5.551096154,7.682907521327053e-07,1.7215529754628609e-06,1.578447963394948e-06,1.4301780771980463e-06,2.007183389929313e-05,3.226055208478907e-06,0.1747211540000002
5.551615385,8.031488887205575e-07,1.741087934411736e-06,1.577350686613346e-06,1.4152090694814425e-06,2.103091400651568e-05,3.2416662129769103e-06,0.1752403850000004
5.552134615,8.383409696924178e-07,1.7591557988730572e-06,1.577305863768709e-06,1.405601585986514e-06,2.2227688490834144e-05,3.253333959168038e-06,0.17575961500000048
5.552653846,8.565078643274267e-07,1.7607523530230903e-06,1.5787310062401868e-06,1.4040281148451133e-06,2.300927027698768e-05,3.255065913832853e-06,0.17627884600000066
5.553173077,8.505659613326119e-07,1.7498947802469843e-06,1.582670938268735e-06,1.407178670026741e-06,2.3340812756536392e-05,3.254854807785936e-06,0.17679807700000083
5.553692308,8.408142418614908e-07,1.740186853659434e-06,1.585665432211581e-06,1.4087267907759412e-06,2.3519339607444613e-05,3.2561389638259537e-06,0.17731730800000012
5.554211538,8.397995164664309e-07,1.7382160586458916e-06,1.5856935627599676e-06,1.4064084426659874e-06,2.376586253027954e-05,3.2581229463578102e-06,0.1778365380000002
5.554730769,8.401497840805469e-07,1.743086475544819e-06,1.5887697419770171e-06,1.403331323161617e-06,2.417766131551805e-05,3.26097096420618e-06,0.17835576900000039
5.55525,8.410227093816611e-07,1.748349758133667e-06,1.5958684866039185e-06,1.4045448935064566e-06,2.458740741522246e-05,3.2666186686818e-06,0.17887500000000056
5.555769231,8.417044182610055e-07,1.7498341205289245e-06,1.5982394448910538e-06,1.4050171208132964e-06,2.476449302585829e-05,3.274803959823152e-06,0.17939423100000074
5.556288462,8.416022779172985e-07,1.7487607369612263e-06,1.5953105868082251e-06,1.3923053282855975e-06,2.4772514763169647e-05,3.2841617519000675e-06,0.1799134620000009
5.556807692,8.417865317035812e-07,1.748128164117888e-06,1.5917203313848256e-06,1.372463322693953e-06,2.481786650575374e-05,3.297451358115589e-06,0.18043269200000012
5.557326923,8.418250731864321e-07,1.749319277122774e-06,1.5878750035552097e-06,1.3647564084383483e-06,2.500845787852914e-05,3.32000182323584e-06,0.1809519230000003
5.557846154,8.42470706897975e-07,1.7504796857602537e-06,1.5866906166670025e-06,1.367428161200348e-06,2.535269050621697e-05,3.3508871897568536e-06,0.18147115400000047
5.558365385,8.416335756857576e-07,1.7505138530855194e-06,1.589442523981505e-06,1.3678162628377338e-06,2.575106467062033e-05,3.3790874260634414e-06,0.18199038500000064
5.558884615,8.443567810299113e-07,1.7512488250065728e-06,1.5921543874093164e-06,1.3696589349678775e-06,2.601982082509655e-05,3.396873431766108e-06,0.18250961500000074
5.559403846,8.60646971850104e-07,1.7524635958576987e-06,1.5937246351816729e-06,1.3762565833778697e-06,2.6103075181802936e-05,3.4041065464326665e-06,0.1830288460000009
5.559923077,8.843001567554789e-07,1.752044984207947e-06,1.5958396621674386e-06,1.3814140419682622e-06,2.611177212775968e-05,3.3976255896810825e-06,0.1835480770000002
5.560442308,9.031647525582716e-07,1.7537058207114026e-06,1.597710328879712e-06,1.3833307526875183e-06,2.611546436033172e-05,3.3740937067178272e-06,0.18406730800000037
5.560961538,9.150475753245916e-07,1.7628563758549323e-06,1.597762590177795e-06,1.3834255558695943e-06,2.614150321554718e-05,3.3381881007901823e-06,0.18458653800000047
5.561480769,9.217596180878568e-07,1.7761430062389865e-06,1.597554297712616e-06,1.383418121578771e-06,2.6202605478211847e-05,3.2993970425950603e-06,0.18510576900000064
5.562,9.25893305944062e-07,1.7852526880750507e-06,1.59845253186537e-06,1.3823603736671943e-06,2.6248732917533325e-05,3.2666752488525675e-06,0.18562500000000082
5.562519231,9.289523371859644e-07,1.787824769481803e-06,1.604816777236744e-06,1.378548167821124e-06,2.6259902606034355e-05,3.247206994330243e-06,0.1861442310000001
5.563038462,9.277305252306514e-07,1.789811102989956e-06,1.6180423238411235e-06,1.3750375593914912e-06,2.62609394414818e-05,3.242588558747259e-06,0.18666346200000028
5.563557692,9.22213948836335e-07,1.7949020498181412e-06,1.6251812597455682e-06,1.37498118832998e-06,2.6263201739726015e-05,3.249186998389389e-06,0.18718269200000037
5.564076923,9.181114259389162e-07,1.7994741889252262e-06,1.624629138166748e-06,1.3757647609954783e-06,2.6274201886833463e-05,3.263321570935625e-06,0.18770192300000055
5.564596154,9.170725453332612e-07,1.800637016246932e-06,1.625389491256424e-06,1.374109512378166e-06,2.6293225518934328e-05,3.2803191360626005e-06,0.18822115400000072
5.565115385,9.17758023202711e-07,1.798575351332523e-06,1.625621878059914e-06,1.371605837609591e-06,2.630932251826843e-05,3.291158214071089e-06,0.1887403850000009
5.565634615,9.198223647862124e-07,1.7937515642135164e-06,1.6264050319279455e-06,1.3683392689172213e-06,2.6318421746140403e-05,3.2826303481516186e-06,0.1892596150000001
5.566153846,9.21405180878733e-07,1.7876468711566851e-06,1.6265297721557814e-06,1.3644711446151388e-06,2.6323210254546136e-05,3.256010624285962e-06,0.18977884600000028
5.566673077,9.214339157276156e-07,1.7829092620728809e-06,1.6217089092980858e-06,1.360633124109178e-06,2.632668886261296e-05,3.23577312177685e-06,0.19029807700000045
5.567192308,9.21951769488326e-07,1.7803584456752069e-06,1.614783152301167e-06,1.3572897867889565e-06,2.63307961286555e-05,3.23331804017753e-06,0.19081730800000063
5.567711538,9.239472635025431e-07,1.7785163509475396e-06,1.6067389621598231e-06,1.3553345915263975e-06,2.6336477140886605e-05,3.235675560746085e-06,0.19133653800000072
5.568230769,9.25883707726646e-07,1.7758950446811268e-06,1.600727359483135e-06,1.3549084841394542e-06,2.6344168350242533e-05,3.2368453561987413e-06,0.1918557690000009
5.56875,9.259883494868674e-07,1.77430824126605e-06,1.599423602558346e-06,1.3593029754962016e-06,2.635444013504804e-05,3.2370220354384786e-06,0.19237500000000018
5.569269231,9.256863146113676e-07,1.775408668508806e-06,1.6000979460411405e-06,1.366064785071249e-06,2.6367242755832438e-05,3.23726862251661e-06,0.19289423100000036
5.569788462,9.283558690947898e-07,1.7772566961697386e-06,1.6008239232762997e-06,1.3673920144054398e-06,2.6379842567188883e-05,3.2413197581298884e-06,0.19341346200000054
5.570307692,9.304662805302968e-07,1.7770687266188534e-06,1.601073888082949e-06,1.3647509022479674e-06,2.6388269912519576e-05,3.243102961919189e-06,0.19393269200000063
5.570826923,9.290904266971132e-07,1.7752851063568871e-06,1.6007856802325371e-06,1.363573615696716e-06,2.639198190482152e-05,3.240872225207604e-06,0.1944519230000008
5.571346154,9.28807110280262e-07,1.7779606369502351e-06,1.600630524421748e-06,1.3640482913751671e-06,2.6393499000483477e-05,3.24043289410208e-06,0.19497115400000098
5.571865385,9.291319871961528e-07,1.7786899179853555e-06,1.6034247082699844e-06,1.3650618300615593e-06,2.639490461902312e-05,3.2405011330929813e-06,0.19549038500000027
5.572384615,9.292068520684452e-07,1.7646020905304018e-06,1.609912532763343e-06,1.3655584849516314e-06,2.6397038216436426e-05,3.24173799162314e-06,0.19600961500000036
5.572903846,9.289820016049024e-07,1.7488904468350082e-06,1.61610683005792e-06,1.3656538048281903e-06,2.639927026990533e-05,3.244571672028377e-06,0.19652884600000053
5.573423077,9.243058847093784e-07,1.7574342946793573e-06,1.6206165149485293e-06,1.3681044793704195e-06,2.640031351618472e-05,3.24529014046702e-06,0.1970480770000007
5.573942308,9.194404941649952e-07,1.789330049423985e-06,1.6262041978692026e-06,1.3719393369702052e-06,2.639986137584284e-05,3.244878005082048e-06,0.19756730800000089
5.574461538,9.187276633942584e-07,1.819066404804216e-06,1.6346816228830776e-06,1.3719784455702709e-06,2.6398741174830667e-05,3.244893651888045e-06,0.19808653800000098
5.574980769,9.184818221158716e-07,1.8343345992191943e-06,1.6427379801940865e-06,1.3676159785330291e-06,2.6398049406568457e-05,3.2446041458912505e-06,0.19860576900000027
5.5755,9.176506210481668e-07,1.8424329234983e-06,1.6462538962232098e-06,1.362885412128574e-06,2.639796364312197e-05,3.244645900754157e-06,0.19912500000000044
5.576019231,9.174794781118358e-07,1.8521173334580624e-06,1.6467825356616135e-06,1.359285852573178e-06,2.6397977732093288e-05,3.2469741868011464e-06,0.19964423100000062
5.576538462,9.1666628402839e-07,1.8676517632085003e-06,1.6467094624832436e-06,1.3554620614172754e-06,2.6398148647451804e-05,3.251399521661607e-06,0.2001634620000008
5.577057692,9.141320182719364e-07,1.8830280426836688e-06,1.64911318151304e-06,1.3528243567760576e-06,2.639856673356058e-05,3.25168746934323e-06,0.20068269200000088
5.577576923,9.125828962516684e-07,1.8874762849224852e-06,1.6565807843253764e-06,1.3539385378449291e-06,2.6398845028279095e-05,3.247991910993712e-06,0.20120192300000017
5.578096154,9.139906965577462e-07,1.8823948556678057e-06,1.663099562177142e-06,1.35655417281105e-06,2.6398959604110925e-05,3.248359409838215e-06,0.20172115400000035
5.578615385,9.187130212105912e-07,1.8772998952540287e-06,1.6587325626430042e-06,1.357641705146979e-06,2.6399034189630008e-05,3.2477107029875044e-06,0.20224038500000052
5.579134615,9.236038990405104e-07,1.8752275546579177e-06,1.6425960507421985e-06,1.356817646779186e-06,2.639907588141794e-05,3.2441991931208277e-06,0.20275961500000061
5.579653846,9.233941557056012e-07,1.8741315126446248e-06,1.628854249673187e-06,1.353448216235658e-06,2.6399120225962807e-05,3.2464559321278363e-06,0.2032788460000008
5.580173077,9.209103093447336e-07,1.870600941565286e-06,1.630029907230554e-06,1.3485490342551882e-06,2.639892880082433e-05,3.250675280447512e-06,0.20379807700000097
5.580692308,9.203692018842044e-07,1.861236398827784e-06,1.6413415100021386e-06,1.3447965934103524e-06,2.6398666315966416e-05,3.2533300402511944e-06,0.20431730800000025
5.581211538,9.207581968914304e-07,1.8528024260955688e-06,1.651969290292889e-06,1.3425908288738278e-06,2.639860131033372e-05,3.250692471778361e-06,0.20483653800000035
5.581730769,9.206168875970876e-07,1.852216760434184e-06,1.6562293887895554e-06,1.341736023928003e-06,2.6398356896313508e-05,3.2362759423340126e-06,0.20535576900000052
5.58225,9.2140346623608e-07,1.8562711416652035e-06,1.654990719436196e-06,1.3413950487062872e-06,2.639798902547673e-05,3.218703139932743e-06,0.2058750000000007
5.582769231,9.275829332611064e-07,1.8627324041020268e-06,1.6537315643115066e-06,1.3395210809721737e-06,2.6397879712017e-05,3.207526139649303e-06,0.20639423100000087
5.583288462,9.373646360439124e-07,1.8648768896210164e-06,1.653750958650475e-06,1.3374415713046911e-06,2.6398486897137595e-05,3.201341006236081e-06,0.20691346200000016
5.583807692,9.43730139598356e-07,1.861029672292481e-06,1.6535734451377926e-06,1.3378196699434274e-06,2.6400172265334943e-05,3.1972011363723124e-06,0.20743269200000025
5.584326923,9.45494273363568e-07,1.8583313964025687e-06,1.6528403972137335e-06,1.3386261273455346e-06,2.640168218651988e-05,3.1934345265985726e-06,0.20795192300000043
5.584846154,9.458915987826396e-07,1.8566010343294413e-06,1.6486790739038877e-06,1.337658712636425e-06,2.6401468705026424e-05,3.1904532100477537e-06,0.2084711540000006
5.585365385,9.488727555257584e-07,1.8501196552100596e-06,1.6416754964834728e-06,1.339213466525143e-06,2.640015139486656e-05,3.189853100022309e-06,0.20899038500000078
5.585884615,9.533166925189376e-07,1.8316002122915065e-06,1.6378164727174552e-06,1.3459134353155912e-06,2.639945239954184e-05,3.19012242700423e-06,0.20950961500000087
5.586403846,9.515940862744988e-07,1.809594796964471e-06,1.637843633037486e-06,1.351906466216889e-06,2.64002560684506e-05,3.1887480713740125e-06,0.21002884600000016
5.586923077,9.451154018927752e-07,1.8030788147273812e-06,1.637742450432347e-06,1.3532966056467883e-06,2.640179871512323e-05,3.1858506122063934e-06,0.21054807700000033
5.587442308,9.434057568593512e-07,1.812556224668673e-06,1.6378837451183858e-06,1.3521438926146998e-06,2.6402576565521206e-05,3.184194206695655e-06,0.2110673080000005
5.587961538,9.454624536384448e-07,1.8269612257946464e-06,1.6382946803128715e-06,1.3517232423282038e-06,2.640239305983615e-05,3.181518698080196e-06,0.2115865380000006
5.588480769,9.453158059794764e-07,1.8412797160599004e-06,1.6367833395013867e-06,1.3557306789601094e-06,2.6402223631477047e-05,3.171469976675476e-06,0.21210576900000078
5.589,9.456082337156496e-07,1.8556489035899304e-06,1.6328176671232912e-06,1.3597072524766813e-06,2.640300784735093e-05,3.1591630056744577e-06,0.21262500000000095
5.589519231,9.481734675773872e-07,1.8687959309991197e-06,1.6332920596068078e-06,1.3587408829599751e-06,2.640441003627137e-05,3.156107041114019e-06,0.21314423100000024
5.590038462,9.490819824021596e-07,1.8768686710100189e-06,1.648681912783595e-06,1.3576607331793104e-06,2.640520662573578e-05,3.162139200987168e-06,0.21366346200000041
5.590557692,9.494648550730372e-07,1.8800434435518675e-06,1.6686580591136977e-06,1.357194410018184e-06,2.6405374823703507e-05,3.168867497681341e-06,0.2141826920000005
5.591076923,9.541920286995971e-07,1.8827280380359752e-06,1.6771760797789482e-06,1.3562628861576588e-06,2.640542448289384e-05,3.1731270748095487e-06,0.21470192300000068
5.591596154,9.641281110809565e-07,1.8885280376157287e-06,1.678744392228799e-06,1.3530493579274022e-06,2.6405685626468613e-05,3.1765485128640488e-06,0.21522115400000086
5.592115385,9.759697674981991e-07,1.8992376283778905e-06,1.6802543271494931e-06,1.3438558142641489e-06,2.6406423924368195e-05,3.1809950019596304e-06,0.21574038500000015
5.592634615,9.857502394496607e-07,1.90811198545081e-06,1.6827463108606986e-06,1.334265164343654e-06,2.64067289615425e-05,3.185059303235948e-06,0.21625961500000024
5.593153846,9.92548471637988e-07,1.9050574936867648e-06,1.6856864359299389e-06,1.3287990615853525e-06,2.6406217365450557e-05,3.181704732031607e-06,0.2167788460000004
5.593673077,9.98916474147801e-07,1.8930740460379649e-06,1.6857981741168285e-06,1.3252713498503654e-06,2.6405694712351663e-05,3.168188022672405e-06,0.2172980770000006
5.594192308,1.009165458174914e-06,1.8869587140565575e-06,1.6865128779883266e-06,1.319825145201218e-06,2.6405358419038608e-05,3.1525023554557567e-06,0.21781730800000076
5.594711538,1.0263311192406083e-06,1.8955485453857e-06,1.6892941586691053e-06,1.3049043576849149e-06,2.6406506186140367e-05,3.140333811955158e-06,0.21833653800000086
5.595230769,1.047726904701378e-06,1.9177457051181454e-06,1.6889292827055437e-06,1.2777775202290515e-06,2.6410009128834088e-05,3.1299170988675424e-06,0.21885576900000014
5.59575,1.0700087385639531e-06,1.951296286323404e-06,1.6929930296273293e-06,1.250818250797308e-06,2.6413779002080998e-05,3.1193385132711723e-06,0.21937500000000032
5.596269231,1.092159987230944e-06,1.9846540035715206e-06,1.7085367575435892e-06,1.237203269282434e-06,2.641628056296877e-05,3.1094032677835334e-06,0.2198942310000005
5.596788462,1.110052932600108e-06,1.999220711795724e-06,1.724277495685791e-06,1.2337031211789934e-06,2.6417918706904684e-05,3.1053884384112287e-06,0.22041346200000067
5.597307692,1.1203911427934276e-06,1.999187201201757e-06,1.729093580982529e-06,1.2332001745891033e-06,2.6419127378889587e-05,3.1089060529682374e-06,0.22093269200000076
5.597826923,1.1239949964812443e-06,1.999302417977987e-06,1.7264833020066478e-06,1.234701017937996e-06,2.6419845026723365e-05,3.1138402730995577e-06,0.22145192300000094
5.598346154,1.1239029550000614e-06,1.9992669508176488e-06,1.7255568823341095e-06,1.235879127576931e-06,2.642015206510122e-05,3.11528448087997e-06,0.22197115400000023
5.598865385,1.1252824155634428e-06,2.004317375358177e-06,1.7248117025983776e-06,1.2347670084424049e-06,2.6420407258616e-05,3.1139013568078736e-06,0.2224903850000004
5.599384615,1.1299698068676912e-06,2.0151416863110523e-06,1.7212684806015803e-06,1.235565122893053e-06,2.6420798874966468e-05,3.112986319337512e-06,0.2230096150000005
5.599903846,1.135057425201552e-06,2.017802287023657e-06,1.7214741754437178e-06,1.2389040709450402e-06,2.64215710150136e-05,3.112988461467729e-06,0.22352884600000067
5.600423077,1.140978384558602e-06,2.017036676586381e-06,1.7241568343441946e-06,1.2345595889198015e-06,2.642336641000996e-05,3.1126125330271475e-06,0.22404807700000084
5.600942308,1.1543086713944011e-06,2.021788822924317e-06,1.7220239901889478e-06,1.220550421385862e-06,2.642629420425014e-05,3.112510910117052e-06,0.22456730800000013
5.601461538,1.184244449543016e-06,2.0242440901864198e-06,1.718997791228972e-06,1.2144360092659449e-06,2.642872176862053e-05,3.112505284592884e-06,0.22508653800000022
5.601980769,1.2271036491133322e-06,2.0225415175144123e-06,1.719215007170579e-06,1.2220314071491735e-06,2.6428628183534828e-05,3.109469549180484e-06,0.2256057690000004
5.6025,1.2622402615133712e-06,2.026546546063634e-06,1.7194694752084285e-06,1.2278650574248346e-06,2.642645756087811e-05,3.1021902815159578e-06,0.22612500000000058
5.603019231,1.2809222330089675e-06,2.044080047824785e-06,1.7196485443769107e-06,1.2268477938962232e-06,2.6424211638895624e-05,3.0931070884337312e-06,0.22664423100000075
5.603538462,1.2922683054724386e-06,2.0664697939387184e-06,1.7198050424244909e-06,1.224568994024743e-06,2.642244063258738e-05,3.084912087884369e-06,0.22716346200000093
5.604057692,1.3054984291581988e-06,2.081135331540713e-06,1.7186003753762289e-06,1.2231248500173925e-06,2.6420812693172095e-05,3.078399338841882e-06,0.22768269200000013
5.604576923,1.320593120752155e-06,2.0890661293544523e-06,1.717688002049574e-06,1.2231341587214514e-06,2.641943557445179e-05,3.073285103729417e-06,0.2282019230000003
5.605096154,1.3283587982050757e-06,2.096158622607757e-06,1.717668990574486e-06,1.2227540047722082e-06,2.6418360727254918e-05,3.069699126469727e-06,0.22872115400000048
5.605615385,1.3291596116185425e-06,2.106710727499965e-06,1.718937165981801e-06,1.2262072884271896e-06,2.641769321015364e-05,3.0676914549782803e-06,0.22924038500000066
5.606134615,1.3291423402170591e-06,2.118484272900571e-06,1.7229372541973287e-06,1.2423576470796266e-06,2.6417826186845023e-05,3.067522582474857e-06,0.22975961500000075
5.606653846,1.330113879894286e-06,2.127005417878778e-06,1.7252375317750825e-06,1.2582122581865167e-06,2.6419319515025185e-05,3.0693601209621544e-06,0.23027884600000093
5.607173077,1.3356874751147134e-06,2.131791684030506e-06,1.7190779591500309e-06,1.259278492129392e-06,2.642406334816996e-05,3.0713996922250805e-06,0.2307980770000002
5.607692308,1.3412521799437866e-06,2.137419387158992e-06,1.708916966714498e-06,1.2522685109541892e-06,2.643792823787325e-05,3.071695708236502e-06,0.2313173080000004
5.608211538,1.3429134853429069e-06,2.1455263305914027e-06,1.7062052683084853e-06,1.245892881833807e-06,2.647147217118391e-05,3.072795119313637e-06,0.23183653800000048
5.608730769,1.3434442329613403e-06,2.1487132301471247e-06,1.7107074578055671e-06,1.248045681536246e-06,2.653046991392033e-05,3.0802990326616965e-06,0.23235576900000066
5.60925,1.3444062668710265e-06,2.1469943105940567e-06,1.7125730535868476e-06,1.2602307232368666e-06,2.6604669745407897e-05,3.089590351748165e-06,0.23287500000000083
5.609769231,1.3459075721776788e-06,2.146385090734205e-06,1.7131039626939645e-06,1.2730720679660092e-06,2.668236685334237e-05,3.0900783619102034e-06,0.23339423100000012
5.610288462,1.3460810899370372e-06,2.1464682203736182e-06,1.72239261160472e-06,1.2793629463738035e-06,2.677202968675571e-05,3.0891438044489616e-06,0.2339134620000003
5.610807692,1.3465619327561486e-06,2.143474313036766e-06,1.7369969178689713e-06,1.2763578693076836e-06,2.689038745021203e-05,3.0993579918402708e-06,0.2344326920000004
5.611326923,1.3475456468318232e-06,2.1389329486398792e-06,1.742047699185515e-06,1.265060502375176e-06,2.701216930091661e-05,3.1152473010739348e-06,0.23495192300000056
5.611846154,1.3479479110407326e-06,2.1376643585422243e-06,1.7345549550739174e-06,1.2540362562852184e-06,2.7065094218920676e-05,3.128188300045911e-06,0.23547115400000074
5.612365385,1.3478706336475835e-06,2.1376051273977694e-06,1.7262901533154752e-06,1.2557083052662591e-06,2.7064456902330085e-05,3.139832127182313e-06,0.2359903850000009
5.612884615,1.3460530585344872e-06,2.136999940326472e-06,1.7230518406740958e-06,1.271156053753699e-06,2.7110342394072496e-05,3.156239442890734e-06,0.23650961500000012
5.613403846,1.344494640397698e-06,2.13725754783016e-06,1.7212207850403057e-06,1.2852088031895745e-06,2.7186834040359356e-05,3.1781773023002117e-06,0.2370288460000003
5.613923077,1.344443579184584e-06,2.1372338262162413e-06,1.7179344623133124e-06,1.2874694164181943e-06,2.722539238551293e-05,3.1934422444566115e-06,0.23754807700000047
5.614442308,1.3438703072483258e-06,2.13779739267688e-06,1.7074313183064077e-06,1.2816297451526524e-06,2.723536829150428e-05,3.19296690078862e-06,0.23806730800000064
5.614961538,1.3433343427457955e-06,2.1385460115762645e-06,1.6914112798431232e-06,1.2739835512985128e-06,2.724051322910313e-05,3.186211239793018e-06,0.23858653800000074
5.615480769,1.3477650189324753e-06,2.138569253026966e-06,1.681458698638407e-06,1.27054726936382e-06,2.724786826925045e-05,3.183656705457116e-06,0.2391057690000009
5.616,1.36162712699726e-06,2.15105781590227e-06,1.6785587604643304e-06,1.2714984036103498e-06,2.7263151691067544e-05,3.1836782555776537e-06,0.2396250000000002
5.616519231,1.379871376359596e-06,2.190421911560544e-06,1.6772074196894636e-06,1.2732822148761912e-06,2.736037247908052e-05,3.1821388339107787e-06,0.24014423100000037
5.617038462,1.3940032411599638e-06,2.240396688190852e-06,1.6781850671353476e-06,1.2797778677656637e-06,2.7944676959767064e-05,3.1797159404237228e-06,0.24066346200000055
5.617557692,1.4024310565439e-06,2.273379370748294e-06,1.687794646303382e-06,1.290498955866352e-06,2.9514009512263213e-05,3.1796065249326103e-06,0.24118269200000064
5.618076923,1.4084939885573563e-06,2.288139171751185e-06,1.7023349648127082e-06,1.2990143286619478e-06,3.1375071210001576e-05,3.18077388751526e-06,0.24170192300000082
5.618596154,1.4151366480543695e-06,2.297855131433173e-06,1.7087412584282704e-06,1.303621310468424e-06,3.236216910632789e-05,3.1784424894600454e-06,0.2422211540000001
5.619115385,1.4197470604600685e-06,2.3164712548998754e-06,1.708406366621933e-06,1.304954527032164e-06,3.26042249081185e-05,3.1755179735574745e-06,0.24274038500000028
5.619634615,1.4199976911015514e-06,2.356178675424942e-06,1.7085989656597412e-06,1.306398329507025e-06,3.2696920870165746e-05,3.178556336774422e-06,0.24325961500000037
5.620153846,1.421800040394652e-06,2.4110273605128005e-06,1.7086107632828675e-06,1.3124459298417847e-06,3.29380838831666e-05,3.1871125584101363e-06,0.24377884600000055
5.620673077,1.4305717910662149e-06,2.461270599599266e-06,1.7120823450806165e-06,1.3207472276754237e-06,3.335180679977167e-05,3.1976151314577087e-06,0.24429807700000072
5.621192308,1.4466331537299668e-06,2.496595437430104e-06,1.719701689409424e-06,1.324799939560352e-06,3.344661243056746e-05,3.207741243715774e-06,0.2448173080000009
5.621711538,1.472759810566002e-06,2.521554422347444e-06,1.7237275947844682e-06,1.3249840511943528e-06,3.343517677673153e-05,3.220617672983171e-06,0.2453365380000001
5.622230769,1.5145470464337218e-06,2.5425806541996333e-06,1.7186302858212355e-06,1.3251858599254147e-06,3.3892967929005176e-05,3.2388584958875803e-06,0.24585576900000028
5.62275,1.568159539886218e-06,2.5606108040976272e-06,1.697442870059484e-06,1.325605684815505e-06,3.4332330524317906e-05,3.255514647462094e-06,0.24637500000000045
5.623269231,1.6150688374373315e-06,2.571582868013137e-06,1.6618963359985626e-06,1.325399944668551e-06,3.441119664751841e-05,3.2628584543276514e-06,0.24689423100000063
5.623788462,1.6435927723953624e-06,2.573269247882739e-06,1.630592078163092e-06,1.3222552017926183e-06,3.4397089709172785e-05,3.2617419292505142e-06,0.2474134620000008
5.624307692,1.661512672432841e-06,2.5730696623607173e-06,1.6145809524683386e-06,1.3166594545447969e-06,3.440620528420447e-05,3.260167584709405e-06,0.2479326920000009
5.624826923,1.684260967644216e-06,2.577776614320775e-06,1.6074032626680145e-06,1.3139890659124066e-06,3.450856713379958e-05,3.267594525130306e-06,0.24845192300000019
5.625346154,1.7291179289342351e-06,2.584613666104498e-06,1.6019543641267827e-06,1.3138684731246186e-06,3.46497569435863e-05,3.289399734232915e-06,0.24897115400000036
5.625865385,1.7958114534220708e-06,2.591901038280422e-06,1.598944783011304e-06,1.313900588791829e-06,3.47243862500877e-05,3.3264694830684256e-06,0.24949038500000054
5.626384615,1.853985112890716e-06,2.6060233354633878e-06,1.603104032889389e-06,1.3134674547958329e-06,3.4775923820660315e-05,3.370787547018335e-06,0.25000961500000063
5.626903846,1.883214338133261e-06,2.6396431966179174e-06,1.6143081932271271e-06,1.310393925209678e-06,3.491022742420065e-05,3.405395611426222e-06,0.2505288460000008
5.627423077,1.8924711249992009e-06,2.7041790851002e-06,1.6276431798108616e-06,1.3085508171857197e-06,3.517661657135579e-05,3.4213062497862874e-06,0.251048077000001
5.627942308,1.895211149919491e-06,2.791516230899324e-06,1.6378371482869018e-06,1.3121216713362687e-06,3.541244657517346e-05,3.423945421359024e-06,0.25156730800000027
5.628461538,1.8972668313121984e-06,2.8777699171367635e-06,1.6411831756107757e-06,1.3152595499121611e-06,3.5525937687010134e-05,3.423913959666243e-06,0.25208653800000036
5.628980769,1.8991122128845796e-06,2.947525530137679e-06,1.6403431926648395e-06,1.3145275958697111e-06,3.559797244337895e-05,3.4321914048340976e-06,0.25260576900000054
5.6295,1.8990030335799328e-06,3.005587526689667e-06,1.6395556796451475e-06,1.3140458779044272e-06,3.564336309452553e-05,3.456758014069163e-06,0.2531250000000007
5.630019231,1.897378612832739e-06,3.066697997654139e-06,1.6400989839884845e-06,1.3154939402942065e-06,3.5699584748422994e-05,3.494179448348849e-06,0.2536442310000009
5.630538462,1.8979460691231656e-06,3.138468431230481e-06,1.6430738136854516e-06,1.3191763842416791e-06,3.5934559597289634e-05,3.5302121463885623e-06,0.2541634620000002
5.631057692,1.9017438330629365e-06,3.2108003765112063e-06,1.6500479659169764e-06,1.3245726319019365e-06,3.661215900247971e-05,3.5569443456142683e-06,0.25468269200000027
5.631576923,1.903191137892663e-06,3.2690803491862472e-06,1.6592104931818817e-06,1.3269949331593785e-06,3.783059259676642e-05,3.579219853963492e-06,0.25520192300000044
5.632096154,1.904072553381814e-06,3.3159159386213617e-06,1.665511084207751e-06,1.3266651611237431e-06,3.897377322030745e-05,3.6013223093894726e-06,0.2557211540000006
5.632615385,1.913466056392054e-06,3.3650876337263537e-06,1.667725296975098e-06,1.327355397865192e-06,3.932694128298647e-05,3.626893870181459e-06,0.2562403850000008
5.633134615,1.92573104479285e-06,3.4243061009101298e-06,1.6682208747815337e-06,1.3259276026801518e-06,3.9337159541715023e-05,3.662108526295539e-06,0.2567596150000009
5.633653846,1.9327174382035616e-06,3.4826231940118817e-06,1.6685765773495924e-06,1.3224091305254932e-06,3.9842015599933165e-05,3.69394420671922e-06,0.25727884600000017
5.634173077,1.937099829480325e-06,3.5170030380944355e-06,1.6695386695480543e-06,1.3255089763827655e-06,4.06823432522512e-05,3.701427323241044e-06,0.25779807700000035
5.634692308,1.9451895898554404e-06,3.523292767445442e-06,1.6716291315870835e-06,1.3397476366603423e-06,4.1290947676802686e-05,3.693634860377505e-06,0.2583173080000005
5.635211538,1.9672607908614707e-06,3.5248747793314847e-06,1.6745686779476914e-06,1.3563176096268085e-06,4.153514571771549e-05,3.6900304537628375e-06,0.2588365380000006
5.635730769,2.001896973727161e-06,3.541885283312196e-06,1.6769770585696862e-06,1.3621003682827594e-06,4.156996225618633e-05,3.690766407380484e-06,0.2593557690000008
5.63625,2.033406114695636e-06,3.56772998462826e-06,1.6780173762540417e-06,1.3597609392686369e-06,4.158099684276341e-05,3.686013958596804e-06,0.25987500000000097
5.636769231,2.056032388848622e-06,3.583662684560528e-06,1.6779752046851083e-06,1.3610600770315593e-06,4.168288022053366e-05,3.667595302701044e-06,0.26039423100000025
5.637288462,2.0753771172491746e-06,3.585943624049045e-06,1.6748378227040303e-06,1.3636971791093424e-06,4.1780724780906376e-05,3.637346413952566e-06,0.26091346200000043
5.637807692,2.0960062275324718e-06,3.586172113857015e-06,1.6690234866899048e-06,1.3637025008355456e-06,4.177303554978636e-05,3.607794790090021e-06,0.2614326920000005
5.638326923,2.1229773743684243e-06,3.5890365935934918e-06,1.6664065007525006e-06,1.3656576010449943e-06,4.193621076767726e-05,3.5897735042262738e-06,0.2619519230000007
5.638846154,2.156682487421996e-06,3.590604494661755e-06,1.6666988185405275e-06,1.3684551572445477e-06,4.2413890582096766e-05,3.5840316923790973e-06,0.2624711540000009
5.639365385,2.1837347048384987e-06,3.590385260587958e-06,1.6655420289354316e-06,1.3694676152875168e-06,4.2834485347559184e-05,3.584834706330464e-06,0.26299038500000016
5.639884615,2.194588083288503e-06,3.589464229607506e-06,1.6629187725189846e-06,1.3692288608481163e-06,4.300879637137016e-05,3.58789564637829e-06,0.26350961500000025
5.640403846,2.1966107659103743e-06,3.5873848699177062e-06,1.6607975853947115e-06,1.3669982391071773e-06,4.306321356916676e-05,3.5922757980353712e-06,0.26402884600000043
5.640923077,2.1979631641562523e-06,3.584768836320288e-06,1.6620428613542805e-06,1.3631202263282236e-06,4.30826137698814e-05,3.5972319843211585e-06,0.2645480770000006
5.641442308,2.2035298618506345e-06,3.584675641089457e-06,1.669817353258826e-06,1.360551658165877e-06,4.31083641901556e-05,3.600099568327628e-06,0.2650673080000008
5.641961538,2.2151636779821765e-06,3.5875625708670146e-06,1.682442226889574e-06,1.3605431249236446e-06,4.31395201345254e-05,3.5993812557372457e-06,0.26558653800000087
5.642480769,2.227761983903935e-06,3.590661834196993e-06,1.6924731411264518e-06,1.3556447263295649e-06,4.31463137027697e-05,3.5981041016468205e-06,0.26610576900000016
5.643,2.237233741968428e-06,3.594232194561956e-06,1.6954073405060277e-06,1.3377881928445082e-06,4.310329873318167e-05,3.600607377857253e-06,0.26662500000000033
5.643519231,2.242920869382417e-06,3.599448788743541e-06,1.6943892185331658e-06,1.3193698913902664e-06,4.298180379873418e-05,3.6048175476061033e-06,0.2671442310000005
5.644038462,2.2447447507082405e-06,3.604384438268329e-06,1.693306815672158e-06,1.3161260962895953e-06,4.279633815049344e-05,3.604533318474931e-06,0.2676634620000007
5.644557692,2.24477386302236e-06,3.610295588271257e-06,1.6927186853083645e-06,1.31997575105987e-06,4.263614750018935e-05,3.60205207093085e-06,0.2681826920000008
5.645076923,2.2489479177272987e-06,3.622115880445352e-06,1.6958729251643564e-06,1.3224212366171188e-06,4.257901505754708e-05,3.6018957116107057e-06,0.26870192300000095
5.645596154,2.2629293655780137e-06,3.643723979793282e-06,1.70250484325748e-06,1.3250598609526286e-06,4.258014727619189e-05,3.600284265672205e-06,0.26922115400000024
5.646115385,2.2864499997932223e-06,3.6685384193672657e-06,1.7026632816906164e-06,1.3263562377781445e-06,4.255077708446314e-05,3.594914265337876e-06,0.2697403850000004
5.646634615,2.3136508989481e-06,3.680155207011114e-06,1.6937040040133726e-06,1.3259590134700044e-06,4.250699804832904e-05,3.5892963480370585e-06,0.2702596150000005
5.647153846,2.3382802981386394e-06,3.678734237261204e-06,1.684001469029296e-06,1.3304297699892166e-06,4.250270095740834e-05,3.588834202227288e-06,0.2707788460000007
5.647673077,2.358869447400691e-06,3.677547341169756e-06,1.678469999336777e-06,1.3423149745689556e-06,4.246775276037699e-05,3.594186512067142e-06,0.27129807700000086
5.648192308,2.37840348745726e-06,3.6782265370026006e-06,1.6770520538609923e-06,1.3524854485034068e-06,4.230969351367362e-05,3.5935127684050547e-06,0.27181730800000015
5.648711538,2.399107837605339e-06,3.6763376322584526e-06,1.6771429617660482e-06,1.3552429831410874e-06,4.217217393519352e-05,3.5787355961921317e-06,0.27233653800000024
5.649230769,2.419040954549217e-06,3.674054254593967e-06,1.6771200057197883e-06,1.3554282824443326e-06,4.2174401572088434e-05,3.5600994905565177e-06,0.2728557690000004
5.64975,2.434432392947899e-06,3.6751781973966287e-06,1.6785922364066102e-06,1.3579639154721546e-06,4.202424805905003e-05,3.54942627944768e-06,0.2733750000000006
5.650269231,2.444426307594501e-06,3.676835253423317e-06,1.682108533092834e-06,1.3612591826014245e-06,4.15668585523933e-05,3.547473821402053e-06,0.27389423100000077
5.650788462,2.451051013197392e-06,3.681195443925493e-06,1.6862813645102486e-06,1.3614880133275778e-06,4.112835788606527e-05,3.550280972542443e-06,0.27441346200000094
5.651307692,2.455420396802441e-06,3.696474126383001e-06,1.6895337116123064e-06,1.3598441670731831e-06,4.0915428576122e-05,3.5543575029433453e-06,0.27493269200000015
5.651826923,2.457008304858695e-06,3.7172052442436847e-06,1.689895828378659e-06,1.360167264563164e-06,4.083681047002613e-05,3.5579400074940843e-06,0.2754519230000003
5.652346154,2.457008401559753e-06,3.733764969850748e-06,1.6913074703744974e-06,1.3612303626618165e-06,4.0795478067853735e-05,3.561424903993938e-06,0.2759711540000005
5.652865385,2.4584855351450277e-06,3.746906701592779e-06,1.691921556080962e-06,1.3588147958887332e-06,4.076356962695489e-05,3.5653772402733217e-06,0.27649038500000067
5.653384615,2.4634648988132348e-06,3.757136229580366e-06,1.6792715745803266e-06,1.355557643325815e-06,4.075286248464088e-05,3.5665377816197505e-06,0.27700961500000076
5.653903846,2.472193403919088e-06,3.760857723351357e-06,1.662422912707956e-06,1.3552156085680608e-06,4.078041138493977e-05,3.5597720469363304e-06,0.27752884600000094
5.654423077,2.48277883861473e-06,3.760180496097033e-06,1.6542546511840856e-06,1.3546212440239216e-06,4.084412480079763e-05,3.54705905765594e-06,0.2780480770000002
5.654942308,2.4912346348578936e-06,3.759994815719361e-06,1.6476590568296354e-06,1.3537726245544704e-06,4.09267377940661e-05,3.5346190476606808e-06,0.2785673080000004
5.655461538,2.4953627742488288e-06,3.759628235580933e-06,1.6371559817602092e-06,1.3538972047609766e-06,4.10070913340339e-05,3.5237401198593727e-06,0.2790865380000005
5.655980769,2.497216094061365e-06,3.7567369492501247e-06,1.6224485718924378e-06,1.3531471703887757e-06,4.106407700051738e-05,3.5146794738164275e-06,0.27960576900000067
5.6565,2.5000271742040484e-06,3.752058398353085e-06,1.6077354287465425e-06,1.3513511427199074e-06,4.108646136212583e-05,3.510822955175063e-06,0.28012500000000085
5.657019231,2.5081495297926816e-06,3.7472983797376817e-06,1.6028469657309568e-06,1.349474726304972e-06,4.108728968694241e-05,3.5118723667536803e-06,0.28064423100000013
5.657538462,2.5234338786041222e-06,3.7429927836403672e-06,1.6076081662826416e-06,1.3500703765000217e-06,4.108600432635365e-05,3.5121968553983983e-06,0.2811634620000003
5.658057692,2.540590823350909e-06,3.7435629161276303e-06,1.6112170109782544e-06,1.3533951769449052e-06,4.108603414626602e-05,3.5112511222473075e-06,0.2816826920000004
5.658576923,2.5550045663477616e-06,3.749467484299886e-06,1.610600495556425e-06,1.3558041924191934e-06,4.108594768653866e-05,3.5112117781902937e-06,0.2822019230000006
5.659096154,2.5682159255211437e-06,3.752641878176648e-06,1.6098588705588066e-06,1.355306720632612e-06,4.108446602460013e-05,3.511205769988481e-06,0.28272115400000075
5.659615385,2.584279481878715e-06,3.751964890904403e-06,1.609022824001274e-06,1.3533528385174612e-06,4.1084404888080726e-05,3.5128400924182723e-06,0.2832403850000009
5.660134615,2.603269404804232e-06,3.751591096792514e-06,1.6101518910803658e-06,1.3523500883801568e-06,4.108742427899789e-05,3.515143591083508e-06,0.28375961500000013
5.660653846,2.6168140077899884e-06,3.751354486954444e-06,1.6144436157532468e-06,1.3523574685795036e-06,4.107970157987133e-05,3.5145938496169803e-06,0.2842788460000003
5.661173077,2.61898195062135e-06,3.7512255369186255e-06,1.6153578187879523e-06,1.3499369777668742e-06,4.1065110187754165e-05,3.5112675644063554e-06,0.2847980770000005
5.661692308,2.619118381202283e-06,3.751085494634317e-06,1.6143460775173289e-06,1.345507207061803e-06,4.106426398733145e-05,3.505307977971216e-06,0.28531730800000066
5.662211538,2.624502405496081e-06,3.7508066288892377e-06,1.6165237884523291e-06,1.344236796385759e-06,4.107017885958856e-05,3.496060088547141e-06,0.28583653800000075
5.662730769,2.627404137695457e-06,3.7515009900670833e-06,1.6189888056076282e-06,1.3443003455759105e-06,4.106457677997855e-05,3.483681814444655e-06,0.2863557690000009
5.66325,2.627506176474589e-06,3.751458208329986e-06,1.620129980809804e-06,1.3460291843914483e-06,4.1044689628051966e-05,3.4689182231075275e-06,0.2868750000000002
5.663769231,2.631110168577468e-06,3.755279018492376e-06,1.6219695492974088e-06,1.3536781407322536e-06,4.101983879714948e-05,3.4500972772839983e-06,0.2873942310000004
5.664288462,2.633593659674859e-06,3.7712529037397386e-06,1.6257715632169936e-06,1.3576811360618126e-06,4.100653627718616e-05,3.428006556993793e-06,0.28791346200000056
5.664807692,2.6330998040562307e-06,3.7931330866783664e-06,1.62847620407264e-06,1.3543780471428428e-06,4.100764931992817e-05,3.411512946287094e-06,0.28843269200000066
5.665326923,2.6340659756172607e-06,3.808495171359225e-06,1.6292606060927927e-06,1.3523268138023798e-06,4.100107832059367e-05,3.407873314526897e-06,0.28895192300000083
5.665846154,2.63658103995244e-06,3.814367805748209e-06,1.6297301679579287e-06,1.3520281977427946e-06,4.097606742351159e-05,3.4111468457255657e-06,0.2894711540000001
5.666365385,2.640076581584864e-06,3.814320068653138e-06,1.631130038310879e-06,1.3515703928327196e-06,4.0949616820859686e-05,3.41133663536695e-06,0.2899903850000003
5.666884615,2.6458079217159444e-06,3.810318590586599e-06,1.632705849245352e-06,1.3472751481229346e-06,4.093099058388371e-05,3.4099083054657865e-06,0.2905096150000004
5.667403846,2.6538769762178243e-06,3.802090891627242e-06,1.6285110560934915e-06,1.3388659812964918e-06,4.091188889270225e-05,3.4108682217904245e-06,0.29102884600000056
5.667923077,2.6611486462387285e-06,3.793245907401791e-06,1.6250285850795137e-06,1.3347918584152573e-06,4.088691995136455e-05,3.41054037987459e-06,0.29154807700000074
5.668442308,2.6651460801593248e-06,3.789024451359516e-06,1.62667637479265e-06,1.3365907973071653e-06,4.0860117525566175e-05,3.40856875392945e-06,0.2920673080000009
5.668961538,2.667455556703472e-06,3.7889309556496976e-06,1.6236060406435016e-06,1.3468015157867124e-06,4.083628465231112e-05,3.417329330828693e-06,0.2925865380000001
5.669480769,2.674310659844867e-06,3.790133005941159e-06,1.6197283319757168e-06,1.3694384265783435e-06,4.081214964600475e-05,3.441873168165626e-06,0.2931057690000003
5.67,2.692120783678247e-06,3.792096873673264e-06,1.6203117428707429e-06,1.3932768785887415e-06,4.0773000765837945e-05,3.4630963637395224e-06,0.29362500000000047
5.670519231,2.7201011836849644e-06,3.797400620634862e-06,1.6194245759220314e-06,1.4074968003823626e-06,4.069527960098035e-05,3.463338321258574e-06,0.29414423100000064
5.671038462,2.7569590889433527e-06,3.8108589716275694e-06,1.6199249596289645e-06,1.413171551311622e-06,4.058069772967394e-05,3.450183052884559e-06,0.2946634620000008
5.671557692,2.806056163959318e-06,3.835202644078063e-06,1.6257010649279354e-06,1.4141838154738758e-06,4.050072532865188e-05,3.4461843157461718e-06,0.2951826920000009
5.672076923,2.8690054142616827e-06,3.870527821621887e-06,1.626733037922324e-06,1.413457011005481e-06,4.049860157051021e-05,3.4607771396900457e-06,0.2957019230000002
5.672596154,2.940747435029676e-06,3.915052201131061e-06,1.6240340304518754e-06,1.4123830521761428e-06,4.047212816899415e-05,3.480745206245909e-06,0.2962211540000004
5.673115385,3.015845626916194e-06,3.967432158446643e-06,1.6282379138788995e-06,1.410556520237211e-06,4.035353884796911e-05,3.489592834417377e-06,0.29674038500000055
5.673634615,3.098124790109e-06,4.033270304869581e-06,1.6342427961742054e-06,1.4066294303011154e-06,4.023913981236749e-05,3.4808503861270336e-06,0.29725961500000064
5.674153846,3.2000995367500825e-06,4.120075861182154e-06,1.6364363422437524e-06,1.4005157902892366e-06,4.021008768688839e-05,3.4588749896061684e-06,0.2977788460000008
5.674673077,3.3338642196364443e-06,4.226782903188503e-06,1.6369833422309697e-06,1.396423396033453e-06,4.022822883109693e-05,3.4366325239100587e-06,0.2982980770000001
5.675192308,3.5033312346021998e-06,4.3419222935390045e-06,1.6370160490186875e-06,1.3982490108899372e-06,4.0245763927567904e-05,3.4222010263371443e-06,0.2988173080000003
5.675711538,3.699039218971481e-06,4.44705629779819e-06,1.638210689856403e-06,1.401526448947926e-06,4.025162416758005e-05,3.413480851673608e-06,0.2993365380000004
5.676230769,3.8929722394888986e-06,4.525760718998017e-06,1.640737517076168e-06,1.4015085287368575e-06,4.0099215264905954e-05,3.4028827379968803e-06,0.29985576900000055
5.67675,4.044186637990049e-06,4.574146642470291e-06,1.6428641320839072e-06,1.4010813816669168e-06,3.960388606127341e-05,3.3870622804654536e-06,0.3003750000000007
5.677269231,4.123903023502796e-06,4.6014820730744165e-06,1.6445977217082485e-06,1.401842221925379e-06,3.894501394602632e-05,3.376305607064265e-06,0.3008942310000009
5.677788462,4.141603313470958e-06,4.618015016399803e-06,1.645879076718207e-06,1.4009295666250069e-06,3.848961770272498e-05,3.3744814145624068e-06,0.3014134620000002
5.678307692,4.140774287456288e-06,4.627346501113567e-06,1.647584560500745e-06,1.3985744218902254e-06,3.829093628809879e-05,3.374585686520902e-06,0.3019326920000003
5.678826923,4.166097680070709e-06,4.632051114283008e-06,1.652265329414632e-06,1.3988904259041109e-06,3.818339963183657e-05,3.378824599085237e-06,0.30245192300000046
5.679346154,4.240894122893935e-06,4.6347017776916006e-06,1.656923830020311e-06,1.4042765729054784e-06,3.803302647044614e-05,3.3976540091197133e-06,0.30297115400000063
5.679865385,4.373365550792318e-06,4.635032908422492e-06,1.654784134207305e-06,1.4130854354974862e-06,3.7775082850027975e-05,3.4386932282145566e-06,0.3034903850000008
5.680384615,4.565036993575814e-06,4.633092476170924e-06,1.647744937440605e-06,1.419975471851102e-06,3.751081587666682e-05,3.4974218644666557e-06,0.3040096150000009
5.680903846,4.795414347761809e-06,4.639476721332471e-06,1.644209793540906e-06,1.4219219524879923e-06,3.739421910933147e-05,3.5553595422957744e-06,0.3045288460000002
5.681423077,5.010465852725106e-06,4.680593940274863e-06,1.6454714065056069e-06,1.4220113128277162e-06,3.7388859649774497e-05,3.593472640270883e-06,0.30504807700000036
5.681942308,5.165913476878018e-06,4.764791623007734e-06,1.6512634502132644e-06,1.421034274287641e-06,3.73587654298959e-05,3.605195820511637e-06,0.30556730800000054
5.682461538,5.277693474819924e-06,4.863039466960034e-06,1.6678684998003478e-06,1.4161533708268868e-06,3.723160202234241e-05,3.593908197518508e-06,0.30608653800000063
5.682980769,5.411590832931778e-06,4.9509230539211525e-06,1.696297214267148e-06,1.4124648844696962e-06,3.699834304468875e-05,3.56866054500382e-06,0.3066057690000008
5.6835,5.6644416122596665e-06,5.032623185115209e-06,1.722966532426122e-06,1.4165418246659257e-06,3.672234241071654e-05,3.543682706459134e-06,0.307125000000001
5.684019231,6.082399001306581e-06,5.1238182430731415e-06,1.7312477308513636e-06,1.4227037122510242e-06,3.653235480858664e-05,3.5277559037066696e-06,0.30764423100000027
5.684538462,6.53471049123006e-06,5.232489418120352e-06,1.727955221463343e-06,1.425942073301114e-06,3.647266821519471e-05,3.5193876618623627e-06,0.30816346200000044
5.685057692,6.833632613778135e-06,5.350144271831633e-06,1.7344112974588497e-06,1.4318219687478552e-06,3.646647286893187e-05,3.5149246860579307e-06,0.30868269200000054
5.685576923,6.9457162852745055e-06,5.461268188463054e-06,1.750352995092074e-06,1.444864791075407e-06,3.646423990103226e-05,3.5132044350659786e-06,0.3092019230000007
5.686096154,6.964431538875089e-06,5.558695521609988e-06,1.7611508597924278e-06,1.4642522214827812e-06,3.644567877152907e-05,3.5134610609716752e-06,0.3097211540000009
5.686615385,6.9642030486614415e-06,5.640702583942089e-06,1.7635141739287418e-06,1.4841826279078015e-06,3.640177155861423e-05,3.5132494133297907e-06,0.3102403850000002
5.687134615,6.96345174764599e-06,5.698384908528775e-06,1.7627141004649266e-06,1.4977309142249823e-06,3.636844517372222e-05,3.511645051963356e-06,0.31075961500000027
5.687653846,6.963058709884001e-06,5.723232754251043e-06,1.7569929433443627e-06,1.5051644949296315e-06,3.6363627552179686e-05,3.509873244738063e-06,0.31127884600000044
5.688173077,6.963178168572056e-06,5.725512859063108e-06,1.7448098758959382e-06,1.5112718003751867e-06,3.6385620727962064e-05,3.5078662731574463e-06,0.3117980770000006
5.688692308,6.9651982709733295e-06,5.7241091683813946e-06,1.7393314638965491e-06,1.5170180070463327e-06,3.6438184031962574e-05,3.5039072109644136e-06,0.3123173080000008
5.689211538,6.970643209892113e-06,5.726318833094361e-06,1.7451580820395971e-06,1.5202436171860768e-06,3.6498745874124246e-05,3.496779477486265e-06,0.3128365380000009
5.689730769,6.97808325282799e-06,5.730854181385048e-06,1.7535518912036952e-06,1.5212864095809309e-06,3.65420736521238e-05,3.487225346015268e-06,0.3133557690000002
5.69025,6.98588006646069e-06,5.736141458364091e-06,1.76316563648161e-06,1.521147295445876e-06,3.6569641343527095e-05,3.478743839920132e-06,0.31387500000000035
5.690769231,6.995502046804153e-06,5.7405870435411815e-06,1.772472783949598e-06,1.5210787790997755e-06,3.658965059903824e-05,3.475981451978905e-06,0.3143942310000005
5.691288462,7.010636958363325e-06,5.742562599832696e-06,1.7825481068325725e-06,1.5217180996730798e-06,3.6601503429702565e-05,3.477267261669445e-06,0.3149134620000007
5.691807692,7.032306788519878e-06,5.7426621072753085e-06,1.791899558448699e-06,1.5251155948781051e-06,3.660120607210737e-05,3.4764019582548925e-06,0.3154326920000008
5.692326923,7.055144242599559e-06,5.742263870587071e-06,1.792240051412043e-06,1.5333381245707996e-06,3.659764948064001e-05,3.4735453344611423e-06,0.31595192300000097
5.692846154,7.074312441073532e-06,5.7418694462730906e-06,1.788999550933883e-06,1.5442732404592711e-06,3.6617323193499055e-05,3.472745719723703e-06,0.31647115400000025
5.693365385,7.091970540213563e-06,5.741938934351237e-06,1.7887721977389646e-06,1.5523628161446465e-06,3.669093092631933e-05,3.4775113044444616e-06,0.31699038500000043
5.693884615,7.114233193121916e-06,5.742176053219768e-06,1.7897236940878595e-06,1.5516783271266214e-06,3.6857495557607085e-05,3.489835683749685e-06,0.3175096150000005
5.694403846,7.144888135699086e-06,5.74165838015492e-06,1.792834030076305e-06,1.5454274148779556e-06,3.718388401664062e-05,3.503784753873142e-06,0.3180288460000007
5.694923077,7.181532923278097e-06,5.742716083948699e-06,1.798811952059092e-06,1.5424646647635176e-06,3.772359019749918e-05,3.5124589066880835e-06,0.3185480770000009
5.695442308,7.22121940475381e-06,5.747579315532413e-06,1.800396551291504e-06,1.5483508414673258e-06,3.837967699144772e-05,3.5183264844477808e-06,0.31906730800000016
5.695961538,7.265804854296622e-06,5.751320787826711e-06,1.800888236673842e-06,1.562636129097085e-06,3.888758646181858e-05,3.5248981719143807e-06,0.31958653800000025
5.696480769,7.318669918565488e-06,5.751038748249421e-06,1.8160391480965e-06,1.5767429281099626e-06,3.909089671567296e-05,3.531636471788688e-06,0.32010576900000043
5.697,7.379536217546284e-06,5.750230896545825e-06,1.829852645305777e-06,1.5831480439118846e-06,3.911039413482863e-05,3.5357709622178857e-06,0.3206250000000006
5.697519231,7.442880150782022e-06,5.749849811433305e-06,1.8247536451914544e-06,1.5842069361099508e-06,3.9112798362798005e-05,3.534593092485085e-06,0.3211442310000008
5.698038462,7.5020025737461296e-06,5.749948999688821e-06,1.820093760030128e-06,1.5841136797671056e-06,3.911922486463793e-05,3.5317105092907736e-06,0.32166346200000095
5.698557692,7.550829469956664e-06,5.752431771226525e-06,1.8243325076047317e-06,1.5820234559180523e-06,3.911913000461669e-05,3.5310385435860235e-06,0.32218269200000016
5.699076923,7.582614892076578e-06,5.759943238462056e-06,1.824427772671508e-06,1.5779529069410477e-06,3.91517098738218e-05,3.531112357034429e-06,0.32270192300000033
5.699596154,7.5954459852124515e-06,5.776958541119401e-06,1.8171571155794344e-06,1.5751163980984989e-06,3.919518091544001e-05,3.53116378395409e-06,0.3232211540000005
5.700115385,7.596965090197186e-06,5.802925305488847e-06,1.810392658185292e-06,1.574635922591408e-06,3.919531400869944e-05,3.5291470415311617e-06,0.3237403850000007
5.700634615,7.597691898405581e-06,5.83176255241981e-06,1.8101403540431948e-06,1.5774406513771707e-06,3.940030169844429e-05,3.5219316668412003e-06,0.3242596150000008
5.701153846,7.603462041524679e-06,5.858550214262713e-06,1.815152052206371e-06,1.587233563156939e-06,4.01567342492132e-05,3.5159834762702417e-06,0.32477884600000095
5.701673077,7.614029921105223e-06,5.880629731224458e-06,1.822932453110363e-06,1.5994667253331992e-06,4.10673324507541e-05,3.5197325373558645e-06,0.32529807700000024
5.702192308,7.623899679425565e-06,5.897663059165277e-06,1.830114893569464e-06,1.6042649691130754e-06,4.146975406876882e-05,3.528205999927326e-06,0.3258173080000004
5.702711538,7.627866502254821e-06,5.909062984842813e-06,1.8333466935469808e-06,1.6031373246504506e-06,4.149336891661693e-05,3.532548058835187e-06,0.3263365380000005
5.703230769,7.627786995807727e-06,5.9127972527373965e-06,1.833990563122957e-06,1.6015676155927829e-06,4.1516383152987386e-05,3.5323205032947226e-06,0.3268557690000007
5.70375,7.62835469096766e-06,5.912867903138143e-06,1.833685742996306e-06,1.60685610625323e-06,4.153852310992071e-05,3.530920675156165e-06,0.32737500000000086
5.704269231,7.630616737050913e-06,5.922714040532387e-06,1.8330225202005876e-06,1.62909756181364e-06,4.153945964714536e-05,3.529743860120568e-06,0.32789423100000015
5.704788462,7.632904955644454e-06,5.948762145538461e-06,1.8312817790543395e-06,1.6617032251792744e-06,4.157264826120005e-05,3.5288058046860114e-06,0.3284134620000003
5.705307692,7.633652038583506e-06,5.9754078970348535e-06,1.825684273661064e-06,1.688844634528732e-06,4.16150139831712e-05,3.5293065701353463e-06,0.3289326920000004
5.705826923,7.633495981903608e-06,5.985052921019333e-06,1.8169134450104296e-06,1.7065280786364217e-06,4.163651546424699e-05,3.533141681382838e-06,0.3294519230000006
5.706346154,7.633446801399555e-06,5.9849208819790506e-06,1.8145520246790085e-06,1.7196242582575803e-06,4.164413471632275e-05,3.538521694015108e-06,0.32997115400000077
5.706865385,7.633734006332705e-06,5.992395942449544e-06,1.827502685943245e-06,1.7318155363288378e-06,4.164824557000414e-05,3.540906144842524e-06,0.33049038500000094
5.707384615,7.636982202716872e-06,6.007479426823997e-06,1.8439409978292192e-06,1.7444407435788346e-06,4.165108074619399e-05,3.540904909629468e-06,0.33100961500000015
5.707903846,7.643221490688039e-06,6.020019858377622e-06,1.847486576196414e-06,1.7592558625451985e-06,4.165134537354269e-05,3.5413702318346635e-06,0.3315288460000003
5.708423077,7.645918381001407e-06,6.027932845774922e-06,1.8472416919472223e-06,1.7738793067614786e-06,4.1651983314852725e-05,3.540630951533716e-06,0.3320480770000005
5.708942308,7.645095740825617e-06,6.035292089461646e-06,1.8554320221595064e-06,1.7820471236910182e-06,4.165734722074641e-05,3.539155001599493e-06,0.33256730800000067
5.709461538,7.650368182683991e-06,6.046920928510187e-06,1.865824575193496e-06,1.7838352540900817e-06,4.166449158175677e-05,3.537171728524967e-06,0.33308653800000076
5.709980769,7.664847962345268e-06,6.068381908311464e-06,1.871535052851712e-06,1.7838136629974137e-06,4.166766549082339e-05,3.5349969068674338e-06,0.33360576900000094
5.7105,7.680880639202287e-06,6.100122039848341e-06,1.8742362858058915e-06,1.7830313428802685e-06,4.1667116530942704e-05,3.540187585790984e-06,0.3341250000000002
5.711019231,7.690895821137418e-06,6.133734874343182e-06,1.8774090094330983e-06,1.7804440531798464e-06,4.166878912176759e-05,3.549845776295738e-06,0.3346442310000004
5.711538462,7.69404714683779e-06,6.158443922147117e-06,1.884808645817917e-06,1.7760562345457576e-06,4.167801507902228e-05,3.554155837938918e-06,0.3351634620000006
5.712057692,7.694178362700214e-06,6.167232755197058e-06,1.8969095469640771e-06,1.7722075833503405e-06,4.169589047805116e-05,3.554164642550221e-06,0.33568269200000067
5.712576923,7.694226930681238e-06,6.1642235720706525e-06,1.9066877758362264e-06,1.771143445164299e-06,4.1720883901018825e-05,3.550279788326908e-06,0.33620192300000085
5.713096154,7.694012824221824e-06,6.173773647448052e-06,1.910825134398905e-06,1.7717530121568065e-06,4.175295049818158e-05,3.5444016481162315e-06,0.33672115400000013
5.713615385,7.69889184719925e-06,6.217352482196837e-06,1.9127876917158475e-06,1.7722106379088654e-06,4.179762083525982e-05,3.542240058891804e-06,0.3372403850000003
5.714134615,7.721420929958604e-06,6.272553974128545e-06,1.9157849644773404e-06,1.772983544397103e-06,4.186321472024447e-05,3.5419631425650443e-06,0.3377596150000004
5.714653846,7.759858505071418e-06,6.303717226917088e-06,1.921832805515621e-06,1.7737333440901502e-06,4.194372307647986e-05,3.5394011217794152e-06,0.3382788460000006
5.715173077,7.792079381726149e-06,6.3136105543646265e-06,1.92803763033617e-06,1.7735285528775938e-06,4.200510450788984e-05,3.5341683676478588e-06,0.33879807700000075
5.715692308,7.804448896661938e-06,6.320562883321927e-06,1.9313390682156367e-06,1.7738694176981334e-06,4.202133221544352e-05,3.529218985785776e-06,0.33931730800000093
5.716211538,7.80534597745617e-06,6.336415629052768e-06,1.9349640048080093e-06,1.774008870500671e-06,4.202297810464824e-05,3.5267066853930847e-06,0.33983653800000013
5.716730769,7.804271991831254e-06,6.364040962966959e-06,1.9399669244867576e-06,1.773615491092357e-06,4.20573344400957e-05,3.5260864907265102e-06,0.3403557690000003
5.71725,7.805607084887376e-06,6.3884666908609895e-06,1.9443837013507284e-06,1.7739789952290735e-06,4.2121650955031725e-05,3.5261901287212917e-06,0.3408750000000005
5.717769231,7.821198546477536e-06,6.399319171208027e-06,1.943711783141144e-06,1.7743203063450315e-06,4.218348426276152e-05,3.5257839482803336e-06,0.34139423100000066
5.718288462,7.852714021960547e-06,6.4026527716114125e-06,1.9390009332334955e-06,1.7751773965422183e-06,4.222849831234904e-05,3.5250475122106792e-06,0.34191346200000083
5.718807692,7.877952639181938e-06,6.406036852371373e-06,1.943405974960498e-06,1.7758121049459358e-06,4.226204627160095e-05,3.5252054425446343e-06,0.3424326920000009
5.719326923,7.884623042803345e-06,6.412511519522998e-06,1.952255652436238e-06,1.7757993894945468e-06,4.2291623907063646e-05,3.5279692767008845e-06,0.3429519230000002
5.719846154,7.882688824186414e-06,6.418764378593346e-06,1.9537747171570237e-06,1.7755700619741865e-06,4.231644886248584e-05,3.5347739210902244e-06,0.3434711540000004
5.720365385,7.8798850791794e-06,6.418956377273159e-06,1.9538314425357527e-06,1.7752837633230211e-06,4.232969598450421e-05,3.542732558746929e-06,0.34399038500000056
5.720884615,7.876909622463044e-06,6.411295128120414e-06,1.946899254630672e-06,1.778908474577311e-06,4.2330711490161705e-05,3.5480722541280908e-06,0.34450961500000066
5.721403846,7.87414223141288e-06,6.399522264610998e-06,1.9258482391373235e-06,1.790720042578334e-06,4.232981498052733e-05,3.551214186392499e-06,0.34502884600000083
5.721923077,7.872472267429499e-06,6.391224237618274e-06,1.9091923939476534e-06,1.8086994167536977e-06,4.234020613393998e-05,3.553687149258764e-06,0.3455480770000001
5.722442308,7.872604674073045e-06,6.389093544899088e-06,1.9096512559373127e-06,1.823379585792409e-06,4.236744081110612e-05,3.5552684134128635e-06,0.3460673080000003
5.722961538,7.873642013197925e-06,6.389027200148058e-06,1.9166863052822026e-06,1.8279599248175056e-06,4.24010284911367e-05,3.556141090405979e-06,0.3465865380000004
5.723480769,7.874382542330405e-06,6.3886999346196456e-06,1.9201594363194992e-06,1.827066811368886e-06,4.241369096016832e-05,3.5637495119441817e-06,0.34710576900000056
5.724,7.874529797120779e-06,6.3869839418611895e-06,1.9202968844739067e-06,1.8270839917667409e-06,4.2423762291347954e-05,3.5869234850356875e-06,0.34762500000000074
5.724519231,7.874618550606151e-06,6.384078747581763e-06,1.9198898182896723e-06,1.826649604202565e-06,4.264198794877136e-05,3.622702018969001e-06,0.3481442310000009
5.725038462,7.875500381191644e-06,6.3830077511027175e-06,1.919249905811121e-06,1.8242986429735545e-06,4.337482141123513e-05,3.658693869002295e-06,0.3486634620000002
5.725557692,7.87649908660663e-06,6.382980362538941e-06,1.9188207855809118e-06,1.823028983661647e-06,4.446053269148175e-05,3.6840927654460864e-06,0.3491826920000003
5.726076923,7.875654467948596e-06,6.382260834908834e-06,1.920139753306179e-06,1.8230738474405017e-06,4.522347867537876e-05,3.696812677088316e-06,0.34970192300000047
5.726596154,7.871537928539677e-06,6.381912711009447e-06,1.9219636186636778e-06,1.8215570266353688e-06,4.539392177862786e-05,3.701161361844395e-06,0.35022115400000065
5.727115385,7.865064384999463e-06,6.381736308735105e-06,1.921822509714302e-06,1.8208807115809105e-06,4.540402063769227e-05,3.701718936935489e-06,0.3507403850000008
5.727634615,7.859617173769287e-06,6.380280192551109e-06,1.921593274868804e-06,1.824066260766748e-06,4.56004847057307e-05,3.70198372902476e-06,0.3512596150000009
5.728153846,7.856769286736175e-06,6.375775544024835e-06,1.9212682250297545e-06,1.82725086108924e-06,4.5865029678475696e-05,3.705373968177034e-06,0.3517788460000002
5.728673077,7.855111023403609e-06,6.370972925830052e-06,1.9203805007556e-06,1.828371988809001e-06,4.601009316918967e-05,3.712287423808862e-06,0.3522980770000004
5.729192308,7.853185496680973e-06,6.37105035921208e-06,1.921583287912005e-06,1.828977821829283e-06,4.603720238388373e-05,3.717924757077439e-06,0.35281730800000055
5.729711538,7.851179719630069e-06,6.37491994853414e-06,1.9227583069385466e-06,1.830823451668764e-06,4.603840119249831e-05,3.7193416401253376e-06,0.35333653800000064
5.730230769,7.850878239448324e-06,6.377785937026864e-06,1.922747139108777e-06,1.8349536290898016e-06,4.606606403643452e-05,3.719314227236296e-06,0.3538557690000008
5.73075,7.85220922860202e-06,6.377053548415487e-06,1.923134065573107e-06,1.833576976020024e-06,4.6116386923565504e-05,3.719287091676408e-06,0.3543750000000001
5.731269231,7.853888978179502e-06,6.374371361713667e-06,1.922395563279329e-06,1.8232369306012736e-06,4.616790430349132e-05,3.7216094654748894e-06,0.3548942310000003
5.731788462,7.85540840691092e-06,6.371772997644687e-06,1.92011755636119e-06,1.818174528736252e-06,4.620167028100519e-05,3.740034398444879e-06,0.35541346200000046
5.732307692,7.85591939512789e-06,6.368940492158265e-06,1.9190475107042507e-06,1.8214861868228928e-06,4.62101680262953e-05,3.783079752782487e-06,0.35593269200000055
5.732826923,7.856121022523135e-06,6.3651626851857845e-06,1.9192987816830445e-06,1.822733756408964e-06,4.620316131055394e-05,3.830984833420503e-06,0.3564519230000007
5.733346154,7.85696913236008e-06,6.361828053375514e-06,1.916400474880466e-06,1.8226936819940853e-06,4.618552756503027e-05,3.858250712663685e-06,0.3569711540000009
5.733865385,7.858290074070675e-06,6.361330610332049e-06,1.9104952778360333e-06,1.82077134745175e-06,4.617684164975166e-05,3.8629847399889295e-06,0.3574903850000002
5.734384615,7.860027051482525e-06,6.364489073066592e-06,1.9092025850598986e-06,1.812377570601951e-06,4.621444513135673e-05,3.85962615704211e-06,0.3580096150000003
5.734903846,7.861736694633107e-06,6.370929725950612e-06,1.9127138647150968e-06,1.805673230315396e-06,4.6235163302536485e-05,3.859637043062228e-06,0.35852884600000046
5.735423077,7.862716396759264e-06,6.376838575065229e-06,1.911295834453667e-06,1.8093211717935685e-06,4.618333544929002e-05,3.859734512519589e-06,0.35904807700000063
5.735942308,7.862733161483715e-06,6.379737387917928e-06,1.905005730577664e-06,1.8163079623008256e-06,4.619157214409519e-05,3.851355397588632e-06,0.3595673080000008
5.736461538,7.86245731553482e-06,6.381973404233468e-06,1.9054201127306736e-06,1.8185194583444003e-06,4.634881744388629e-05,3.839648542742679e-06,0.3600865380000009
5.736980769,7.86231936502749e-06,6.386109497048063e-06,1.9161439963295294e-06,1.8166523470507349e-06,4.6559417805885496e-05,3.832985861194967e-06,0.3606057690000002
5.7375,7.863536930299124e-06,6.393795428197774e-06,1.9275402254738407e-06,1.8095273249463075e-06,4.673494901477237e-05,3.826978970129476e-06,0.36112500000000036
5.738019231,7.86858381829419e-06,6.401850738628408e-06,1.933288839055287e-06,1.797872889171544e-06,4.688335489691191e-05,3.8142024966714024e-06,0.36164423100000054
5.738538462,7.876960073454628e-06,6.405958831673947e-06,1.9356217973929207e-06,1.7893379650423965e-06,4.71114917068508e-05,3.795867848653789e-06,0.3621634620000007
5.739057692,7.885164124863597e-06,6.407199131899632e-06,1.9347436172337587e-06,1.7867710654324789e-06,4.743357303623343e-05,3.781863349946272e-06,0.3626826920000008
5.739576923,7.891190927095703e-06,6.407345029892725e-06,1.9303571554705843e-06,1.787336438524502e-06,4.763834337861945e-05,3.777962215483938e-06,0.363201923000001
5.740096154,7.895190356465703e-06,6.4073530240035886e-06,1.926723563559408e-06,1.78950160110031e-06,4.766141946342752e-05,3.778177117585246e-06,0.36372115400000027
5.740615385,7.896965878064545e-06,6.407304135028831e-06,1.9261737282724078e-06,1.791558217472022e-06,4.766761519216166e-05,3.777727165757613e-06,0.36424038500000044
5.741134615,7.895844947646253e-06,6.402314954632123e-06,1.926583563246836e-06,1.7916461707274748e-06,4.769020926632805e-05,3.777722451363239e-06,0.36475961500000054
5.741653846,7.89306554499108e-06,6.387610222343425e-06,1.926905056449407e-06,1.7900113498600891e-06,4.7634359253925855e-05,3.777151375666449e-06,0.3652788460000007
5.742173077,7.890631393083381e-06,6.369289508527068e-06,1.9233080660931598e-06,1.7869148692701845e-06,4.727880795162296e-05,3.7795133085699625e-06,0.3657980770000009
5.742692308,7.888976056550892e-06,6.357171988318219e-06,1.91265508668976e-06,1.783336396695023e-06,4.629393022201239e-05,3.796839394522553e-06,0.3663173080000002
5.743211538,7.888493530983906e-06,6.351489663126815e-06,1.9053365526928804e-06,1.7831907908950489e-06,4.503898518567443e-05,3.832570107967677e-06,0.36683653800000027
5.743730769,7.892486776449535e-06,6.347189307504262e-06,1.9096868357330578e-06,1.7873677631014537e-06,4.4364162525566726e-05,3.875438895171402e-06,0.36735576900000044
5.74425,7.905740847692787e-06,6.33937233995146e-06,1.9151001341825758e-06,1.790770177306396e-06,4.425195073425146e-05,3.912501805004804e-06,0.3678750000000006
5.744769231,7.926679947530068e-06,6.324105931919661e-06,1.915150112360694e-06,1.7893874643479603e-06,4.4249137637695176e-05,3.936261899453237e-06,0.3683942310000008
5.745288462,7.94654124912631e-06,6.3034176000864e-06,1.916077647069533e-06,1.7857004826725437e-06,4.4111257437217457e-05,3.9466483339118965e-06,0.36891346200000097
5.745807692,7.959045916044881e-06,6.284744302890332e-06,1.915012932425373e-06,1.7858086386411498e-06,4.380170038260194e-05,3.948934804181802e-06,0.3694326920000002
5.746326923,7.963732493179284e-06,6.2725045893793565e-06,1.908826914450464e-06,1.789409062220276e-06,4.3692841847407913e-05,3.94559935946201e-06,0.36995192300000035
5.746846154,7.96176757313629e-06,6.265250921602426e-06,1.9048434629569732e-06,1.7911105204183607e-06,4.365358971759322e-05,3.934801397478824e-06,0.3704711540000005
5.747365385,7.954261956317371e-06,6.25947821353933e-06,1.906575383266013e-06,1.7909589873305068e-06,4.327697600548411e-05,3.919456679839404e-06,0.3709903850000007
5.747884615,7.943712104072158e-06,6.2531250292665625e-06,1.9112266579061123e-06,1.7911816424394045e-06,4.297443010098523e-05,3.913790398511036e-06,0.3715096150000008
5.748403846,7.934219922440018e-06,6.248086990266909e-06,1.9137971597798283e-06,1.791371580844104e-06,4.311970339769801e-05,3.927818318766854e-06,0.37202884600000097
5.748923077,7.928296927470381e-06,6.246868587770902e-06,1.9137987779652147e-06,1.7914351924078011e-06,4.363624248175347e-05,3.953624873911622e-06,0.37254807700000026
