Time,Rectus Femoris,Vastus Medialis,Vastus Lateralis,Bicep Femoris,Tibialis,Gastrocnemius Medialis,Activity
0.0,5.553437690830821e-06,6.505096930945058e-06,4.088579015354493e-06,3.377372474973968e-06,1.1798974592054443e-05,4.982441385094793e-07,Unknown
0.0005192310000001754,5.543364482137191e-06,6.514518950161368e-06,4.085952384481874e-06,3.3783124117581827e-06,1.1822190666403044e-05,4.992598244765496e-07,Unknown
0.0010384620000003508,5.533840740548552e-06,6.528531193126644e-06,4.091297875344984e-06,3.3787729612849057e-06,1.1840304447155015e-05,5.003460619574214e-07,Unknown
0.0015576920000004435,5.5236851644373774e-06,6.541847048418119e-06,4.098089800595004e-06,3.37867654510134e-06,1.1852955468163076e-05,5.011783796972061e-07,Unknown
0.002076923000000619,5.514558484342684e-06,6.550874111773574e-06,4.102190431880851e-06,3.378202829919252e-06,1.1861142152177718e-05,5.017419174983271e-07,Unknown
0.002596153999999906,5.509794777657656e-06,6.5555312694909335e-06,4.103503227393178e-06,3.3770332610266297e-06,1.1864043622101808e-05,5.019818721857135e-07,Unknown
0.0031153850000000816,5.509165212647305e-06,6.556841682708186e-06,4.102883147191474e-06,3.3748821387304976e-06,1.186388569904059e-05,5.019554404675562e-07,Unknown
0.0036346150000001742,5.50906037279762e-06,6.556374779240323e-06,4.10009735561688e-06,3.3725855718021584e-06,1.1864237929187036e-05,5.018423022324976e-07,Unknown
0.00415384600000035,5.508565564313567e-06,6.555697687081859e-06,4.095031861235652e-06,3.371306514834165e-06,1.1864265243252924e-05,5.016971537425338e-07,Unknown
0.004673077000000525,5.508089622116401e-06,6.554822826065633e-06,4.088020400349205e-06,3.3710183261366563e-06,1.1865014783494875e-05,5.014943797724668e-07,Unknown
0.005192307999999812,5.50416623980768e-06,6.5526336790454506e-06,4.085077137598711e-06,3.3713389970073706e-06,1.186597481873349e-05,5.011581851429441e-07,Unknown
0.005711537999999905,5.471392086700792e-06,6.548894503562167e-06,4.087600818336948e-06,3.371681827621259e-06,1.185376444108606e-05,5.004770223350357e-07,Unknown
0.00623076900000008,5.360751278865042e-06,6.545421582944665e-06,4.083295430954768e-06,3.371711236271747e-06,1.1815830165225972e-05,4.991755204299646e-07,Unknown
0.006750000000000256,5.188136925145789e-06,6.543693521600773e-06,4.069118884977192e-06,3.372270260032114e-06,1.1760333197762056e-05,4.972658556228863e-07,Unknown
0.007269231000000431,5.063701305128008e-06,6.5430022829281045e-06,4.0564170555633645e-06,3.373570207112868e-06,1.1707549246021075e-05,4.951730037640704e-07,Unknown
0.007788462000000607,5.03455318034168e-06,6.542518066433101e-06,4.050044916148322e-06,3.3744900064219685e-06,1.1668736631020244e-05,4.93247674119373e-07,Unknown
0.008307691999999811,5.03410381201244e-06,6.543225228255206e-06,4.0454509536357e-06,3.374736816651005e-06,1.1639002622713832e-05,4.913933227217505e-07,Unknown
0.008826922999999987,5.015335354975466e-06,6.547111484205195e-06,4.035390613227257e-06,3.374494953387546e-06,1.1605460510765107e-05,4.892915498742017e-07,Unknown
0.009346154000000162,4.986394648233544e-06,6.550819275215767e-06,4.014557508598304e-06,3.373785281193604e-06,1.1557875804644676e-05,4.868883527827196e-07,Unknown
0.009865385000000337,4.959005404575485e-06,6.547641469251035e-06,3.988872680215201e-06,3.373565337920182e-06,1.1497991927897717e-05,4.846401973317014e-07,Unknown
0.01038461500000043,4.932973215732066e-06,6.534851875636232e-06,3.96727298832253e-06,3.373117376515662e-06,1.1447049203938843e-05,4.830371513020787e-07,Unknown
0.010903846000000605,4.905245677083015e-06,6.511818749010226e-06,3.949001287398085e-06,3.3688330790217718e-06,1.1423265848099706e-05,4.820322813943868e-07,Unknown
0.011423076999999893,4.876038644389725e-06,6.481397797344663e-06,3.929250874293289e-06,3.3601799110875486e-06,1.141625797135321e-05,4.812943541752917e-07,Unknown
0.011942308000000068,4.85096018232283e-06,6.449883923338901e-06,3.907791741923999e-06,3.3516715537176966e-06,1.140633007886729e-05,4.80684766674439e-07,Unknown
0.01246153800000016,4.836033648982482e-06,6.422426952131831e-06,3.88908673217147e-06,3.3463281733634213e-06,1.1381580636491084e-05,4.803618988085924e-07,Unknown
0.012980769000000336,4.830831205598112e-06,6.402683732427634e-06,3.874304601251328e-06,3.343379391080977e-06,1.134227267873714e-05,4.805759099582221e-07,Unknown
0.013500000000000512,4.830327409654398e-06,6.3915503621756256e-06,3.860732596211752e-06,3.34202194671278e-06,1.1308541136515723e-05,4.812605344002553e-07,Unknown
0.014019231000000687,4.830856450297513e-06,6.389164149168079e-06,3.849718903199068e-06,3.3447895512009662e-06,1.1295196544667724e-05,4.819596885349299e-07,Unknown
0.014538461999999974,4.831267330295176e-06,6.395999181605833e-06,3.84660083742349e-06,3.3589802278622083e-06,1.1294588883211184e-05,4.822801515928575e-07,Unknown
0.015057692000000067,4.831041576174848e-06,6.408136756006253e-06,3.847983595416275e-06,3.3915696774735e-06,1.1294607486275758e-05,4.821292543258115e-07,Unknown
0.015576923000000242,4.8291526718752775e-06,6.418627524738466e-06,3.846970656407387e-06,3.4367892653128e-06,1.1285961619973452e-05,4.814989599363512e-07,Unknown
0.016096154000000418,4.824722100621572e-06,6.422492610853515e-06,3.845283793238103e-06,3.474115850086393e-06,1.1268967762818062e-05,4.803323292232536e-07,Unknown
0.016615385000000593,4.818141701796294e-06,6.41922794209434e-06,3.844718297637952e-06,3.4893104780990083e-06,1.1255324256437156e-05,4.786853476981817e-07,Unknown
0.017134615000000686,4.809958796835896e-06,6.409792131865853e-06,3.844509997171202e-06,3.4885688128312623e-06,1.1249688340409523e-05,4.769174688911384e-07,Unknown
0.017653845999999973,4.799234579889389e-06,6.391788856805478e-06,3.839475921798018e-06,3.4827393642211275e-06,1.124787676548276e-05,4.754393673734779e-07,Unknown
0.01817307700000015,4.78389185591867e-06,6.3589491990965335e-06,3.8242754190209495e-06,3.4725014614508857e-06,1.1243358720984013e-05,4.742600276515287e-07,Unknown
0.018692308000000324,4.7620568804575934e-06,6.30275031776929e-06,3.803493674802448e-06,3.4574508161274194e-06,1.1227520905263955e-05,4.730939798678773e-07,Unknown
0.019211538000000417,4.731924575133171e-06,6.218249688292603e-06,3.782060066196952e-06,3.450441080695185e-06,1.1198639452654785e-05,4.718444947958356e-07,Unknown
0.019730769000000592,4.693083148797368e-06,6.1103038375783685e-06,3.756454918259411e-06,3.478778299090162e-06,1.1159557402766363e-05,4.709523295942414e-07,Unknown
0.02024999999999988,4.651294070618481e-06,5.991506419381688e-06,3.7155124217272272e-06,3.573459985307869e-06,1.1106384566041833e-05,4.707698112756601e-07,Unknown
0.020769231000000055,4.615685428982162e-06,5.8731289761476e-06,3.662676016154377e-06,3.7520155222970807e-06,1.103877203906264e-05,4.7086304280818404e-07,Unknown
0.02128846200000023,4.592750798770425e-06,5.760864798236587e-06,3.621650037618962e-06,3.997196416091691e-06,1.097225771928502e-05,4.709863083403359e-07,Unknown
0.021807692000000323,4.584381173878653e-06,5.659791818725979e-06,3.596966186866519e-06,4.252090815334588e-06,1.0920414783256604e-05,4.713307861142202e-07,Unknown
0.022326923000000498,4.583298116713824e-06,5.576260823128957e-06,3.571020652822189e-06,4.447378809828044e-06,1.088110536345395e-05,4.715776491036218e-07,Unknown
0.022846154000000674,4.579511453477614e-06,5.514159771794581e-06,3.5301526110955307e-06,4.543050533429196e-06,1.0846131672295718e-05,4.7155736033380454e-07,Unknown
0.02336538499999996,4.571566332718913e-06,5.4718970614704695e-06,3.477013236421916e-06,4.560728044468247e-06,1.0813082144147244e-05,4.71734233287102e-07,Unknown
0.023884615000000053,4.563553557502073e-06,5.443038052303296e-06,3.4274727923966263e-06,4.561472193528987e-06,1.0791254323056926e-05,4.724526865582139e-07,Unknown
0.02440384600000023,4.559589669508468e-06,5.4214136171731454e-06,3.3885344178686823e-06,4.574014230089001e-06,1.07862429733018e-05,4.7399321717659683e-07,Unknown
0.024923077000000404,4.560848243718165e-06,5.405247494243719e-06,3.354174985524368e-06,4.584321137978867e-06,1.0789665908111877e-05,4.766561527698426e-07,Unknown
0.02544230800000058,4.565330532965097e-06,5.396081960807342e-06,3.319371622793184e-06,4.5861831362547325e-06,1.0801825617899616e-05,4.80629470829659e-07,Unknown
0.025961538000000672,4.57144905334446e-06,5.394260577959157e-06,3.285929956067517e-06,4.586080113830358e-06,1.0826829692290208e-05,4.856626480490658e-07,Unknown
0.02648076899999996,4.578103042039226e-06,5.39715764008666e-06,3.2598141948294457e-06,4.586031333784484e-06,1.08507646018398e-05,4.907432382285753e-07,Unknown
0.027000000000000135,4.584875632862986e-06,5.402302696773577e-06,3.244141491071279e-06,4.586254101588329e-06,1.0865158211145031e-05,4.945635392540762e-07,Unknown
0.02751923100000031,4.593394281705805e-06,5.409077785308759e-06,3.237082543476104e-06,4.586441168882739e-06,1.0875259809003208e-05,4.96225399679058e-07,Unknown
0.028038462000000486,4.605726356858344e-06,5.417138950975231e-06,3.235005163295084e-06,4.585660734116904e-06,1.0873787304220176e-05,4.95844216486328e-07,Unknown
0.02855769200000058,4.619864769527766e-06,5.425165093159289e-06,3.234562450718826e-06,4.583958357028405e-06,1.084684655473672e-05,4.943629596615879e-07,Unknown
0.029076922999999866,4.629260130668437e-06,5.430981339694232e-06,3.235389889950679e-06,4.582373209546677e-06,1.0795790297778016e-05,4.926451500876407e-07,Unknown
0.02959615400000004,4.630566208910076e-06,5.433526522815251e-06,3.239253608741129e-06,4.582173858236082e-06,1.0731087384424898e-05,4.910041609349347e-07,Unknown
0.030115385000000217,4.626539441757754e-06,5.433756718412517e-06,3.245613322601376e-06,4.583667762779797e-06,1.0653979706458823e-05,4.893367203511552e-07,Unknown
0.03063461500000031,4.6206068478669656e-06,5.4305872503649326e-06,3.2518780928389454e-06,4.58597602717911e-06,1.0550990578042092e-05,4.873358287923955e-07,Unknown
0.031153846000000485,4.612411372813622e-06,5.418734046985935e-06,3.2542408387924326e-06,4.587150507163486e-06,1.0412013233193192e-05,4.846163801824579e-07,Unknown
0.03167307700000066,4.598549604234862e-06,5.394592599448335e-06,3.248966114870338e-06,4.584070578148454e-06,1.0246506515624152e-05,4.808815948610424e-07,Unknown
0.03219230799999995,4.577376514562313e-06,5.359712119799314e-06,3.236784096280892e-06,4.575914246307193e-06,1.0072698758055252e-05,4.76485064889483e-07,Unknown
0.03271153800000004,4.55015065839439e-06,5.317649163370479e-06,3.220774178877055e-06,4.56784416324463e-06,9.91854138963191e-06,4.7253965230588157e-07,Unknown
0.033230769000000215,4.516057344227045e-06,5.270746541528233e-06,3.2017038851314555e-06,4.565893393340346e-06,9.818686839726016e-06,4.6970655411644806e-07,Unknown
0.03375000000000039,4.469984712849765e-06,5.217567529225214e-06,3.179287369232788e-06,4.568621100997805e-06,9.772384947676109e-06,4.680566812749577e-07,Unknown
0.034269231000000566,4.408036476239741e-06,5.15454207158517e-06,3.1551141932803508e-06,4.569989097025655e-06,9.748558632889346e-06,4.67481652985226e-07,Unknown
0.03478846199999985,4.334771715546949e-06,5.077407113142765e-06,3.130475052033669e-06,4.569247041677176e-06,9.72706578990263e-06,4.674257411205845e-07,Unknown
0.035307691999999946,4.262139290255033e-06,4.985935924790463e-06,3.1041376159271096e-06,4.5686961834805466e-06,9.69321318808339e-06,4.6746003614155546e-07,Unknown
0.03582692300000012,4.201161284869633e-06,4.894551337281075e-06,3.0712480293016987e-06,4.567999334230868e-06,9.654797809884298e-06,4.675123684423524e-07,Unknown
0.0363461540000003,4.156329788533236e-06,4.821358157087909e-06,3.0227815919700326e-06,4.568690057731749e-06,9.638101593291784e-06,4.674986896291133e-07,Unknown
0.03686538500000047,4.126202656904176e-06,4.766919646181664e-06,2.9565961663033704e-06,4.57154500615415e-06,9.637209038327053e-06,4.672635150085514e-07,Unknown
0.037384615000000565,4.10627395921658e-06,4.719817840323189e-06,2.885489388783086e-06,4.571051546412054e-06,9.637262272058303e-06,4.669327477196596e-07,Unknown
0.03790384599999985,4.092447380653252e-06,4.67418424845617e-06,2.8269992762750944e-06,4.562437985044859e-06,9.637349942923547e-06,4.6684560363868853e-07,Unknown
0.03842307700000003,4.08351329275232e-06,4.638417167960735e-06,2.788705805601213e-06,4.547945779955477e-06,9.640651011247347e-06,4.669712151869306e-07,Unknown
0.0389423080000002,4.079867351999768e-06,4.623788582916281e-06,2.765353563947211e-06,4.534727845602344e-06,9.651142322082602e-06,4.671936786922897e-07,Unknown
0.039461538000000296,4.080311749945699e-06,4.624242764507659e-06,2.7520878637811838e-06,4.527480312220512e-06,9.652436593733427e-06,4.674218680025621e-07,Unknown
0.03998076900000047,4.077254827961927e-06,4.622784891918402e-06,2.749396003782145e-06,4.523757010611328e-06,9.631635750840625e-06,4.675755823624423e-07,Unknown
0.04050000000000065,4.051288297339063e-06,4.607736736570682e-06,2.751834286988209e-06,4.519217821856072e-06,9.609103087128864e-06,4.677185129065819e-07,Unknown
0.041019230999999934,3.977278467999827e-06,4.571850003766117e-06,2.7522580538546013e-06,4.513474256348815e-06,9.602972605723689e-06,4.676490862244302e-07,Unknown
0.04153846200000011,3.847691208369734e-06,4.510014929412523e-06,2.7500398245291817e-06,4.508565046974352e-06,9.602597728455774e-06,4.670815070113137e-07,Unknown
0.0420576920000002,3.687237644767423e-06,4.427083322986933e-06,2.7439195385844617e-06,4.506247535918824e-06,9.58401948978125e-06,4.659848150751085e-07,Unknown
0.04257692300000038,3.535074535233616e-06,4.339221221497615e-06,2.727118992130274e-06,4.507139216730422e-06,9.539907747334536e-06,4.643525419137228e-07,Unknown
0.04309615400000055,3.415388518296384e-06,4.259182870870417e-06,2.6936634512903318e-06,4.509414396249811e-06,9.497463921618309e-06,4.620720668429294e-07,Unknown
0.04361538499999984,3.328849771383458e-06,4.186545435067851e-06,2.648181001362227e-06,4.5106065801762695e-06,9.49557493727882e-06,4.589367477751849e-07,Unknown
0.04413461499999993,3.2647460260963726e-06,4.115596438830683e-06,2.603651448888695e-06,4.510333978296627e-06,9.536346271002087e-06,4.546605260633435e-07,Unknown
0.04465384600000011,3.213871883126391e-06,4.048822458069095e-06,2.5686109878758266e-06,4.509390202627419e-06,9.577324809806757e-06,4.49291959727729e-07,Unknown
0.045173077000000283,3.173179111498542e-06,4.000234080809382e-06,2.543956044508937e-06,4.508803507572259e-06,9.588056848643106e-06,4.43578941228803e-07,Unknown
0.04569230800000046,3.1449163174880337e-06,3.980082780622733e-06,2.5309835970393897e-06,4.509544510747421e-06,9.583115644311386e-06,4.386624161342874e-07,Unknown
0.04621153800000055,3.1307924335704844e-06,3.981180661401122e-06,2.5321734533029323e-06,4.511111014416412e-06,9.586290785593508e-06,4.351599994527002e-07,Unknown
0.04673076899999984,3.1275900647607917e-06,3.9879961532205645e-06,2.545106970070113e-06,4.511787758219458e-06,9.595093313623828e-06,4.325591559112236e-07,Unknown
0.047250000000000014,3.1298480365907143e-06,3.992008525803539e-06,2.560168625680524e-06,4.511284487803931e-06,9.577654965855013e-06,4.303428404743106e-07,Unknown
0.04776923100000019,3.133624276444219e-06,3.994860520960266e-06,2.567230748735554e-06,4.511476800572274e-06,9.518862908342189e-06,4.287386426558836e-07,Unknown
0.048288462000000365,3.137800173774437e-06,4.005446980040871e-06,2.5671737647419148e-06,4.513319946128043e-06,9.458685496837596e-06,4.2780725829404433e-07,Unknown
0.04880769200000046,3.142970313567146e-06,4.0307691725761975e-06,2.571115071365884e-06,4.515022101847319e-06,9.4299447751745e-06,4.272453156707698e-07,Unknown
0.04932692300000063,3.1490187886682537e-06,4.058437759819475e-06,2.582367307418182e-06,4.514992179097772e-06,9.420939281220591e-06,4.268636692150142e-07,Unknown
0.04984615399999992,3.153340005985418e-06,4.071531480337994e-06,2.5917200632162426e-06,4.514095655036509e-06,9.406183812192942e-06,4.266978143325679e-07,Unknown
0.050365385000000096,3.1530618423933983e-06,4.073164629618977e-06,2.595947815286412e-06,4.513586262735895e-06,9.363830539950157e-06,4.267384638313077e-07,Unknown
0.05088461500000019,3.148814475799103e-06,4.0716733802568025e-06,2.598618034441516e-06,4.513179626677925e-06,9.302551864148502e-06,4.265941303993108e-07,Unknown
0.051403846000000364,3.143120314434519e-06,4.0736458250097264e-06,2.599414297514356e-06,4.513041686673121e-06,9.251659846798649e-06,4.259688102323862e-07,Unknown
0.05192307700000054,3.1356344590943e-06,4.079960663232086e-06,2.598528261118674e-06,4.51492970542725e-06,9.21796632634719e-06,4.2504396662098075e-07,Unknown
0.052442307999999827,3.1218114657568382e-06,4.081726526938329e-06,2.5974257308322428e-06,4.519795701744802e-06,9.189267890161403e-06,4.239908032469127e-07,Unknown
0.05296153799999992,3.0949226384645044e-06,4.079727102368216e-06,2.5963519041904417e-06,4.527624816170458e-06,9.157563317476714e-06,4.227541523946846e-07,Unknown
0.053480769000000095,3.052244795021115e-06,4.080142088715104e-06,2.596303336052266e-06,4.537825585541762e-06,9.129238482251002e-06,4.213124504537117e-07,Unknown
0.05400000000000027,3.0010728156298394e-06,4.080720388779147e-06,2.593594168648533e-06,4.547676294671994e-06,9.117177554416912e-06,4.197807994567135e-07,Unknown
0.054519231000000445,2.95310743087286e-06,4.078836251772253e-06,2.585740603016655e-06,4.553530561738839e-06,9.121759461690831e-06,4.1809967444829563e-07,Unknown
0.05503846200000062,2.91327756612781e-06,4.074474820096788e-06,2.5775414828311483e-06,4.553651895782134e-06,9.133559723418e-06,4.158218013802597e-07,Unknown
0.055557691999999825,2.8778575533955395e-06,4.0643864515384975e-06,2.571705879501997e-06,4.551229528048438e-06,9.14923800016843e-06,4.125621494936784e-07,Unknown
0.056076923,2.8416522543379505e-06,4.04006858230635e-06,2.568970743150598e-06,4.551139418691092e-06,9.168263660561751e-06,4.080963078704413e-07,Unknown
0.056596154000000176,2.806454567148632e-06,3.998112136325901e-06,2.5686634745824884e-06,4.552575754428596e-06,9.183075018842922e-06,4.025465437818619e-07,Unknown
0.05711538500000035,2.78048100402392e-06,3.954869993298935e-06,2.570265067481673e-06,4.553588310764502e-06,9.189616173512646e-06,3.97279649182851e-07,Unknown
0.057634615000000444,2.768277020514073e-06,3.932537756815592e-06,2.5765281740885604e-06,4.553631998642644e-06,9.1945615955383e-06,3.936749437368293e-07,Unknown
0.05815384600000062,2.766904460028709e-06,3.934116495860621e-06,2.5843098979616303e-06,4.551413285106641e-06,9.21286016161564e-06,3.91497174008164e-07,Unknown
0.05867307699999991,2.7711132246867567e-06,3.948786682305492e-06,2.582256062255522e-06,4.54799429792042e-06,9.256742532581682e-06,3.8998536630647355e-07,Unknown
0.05919230800000008,2.7777451717699616e-06,3.967372493672628e-06,2.5639883144581187e-06,4.545881585017296e-06,9.31119636768504e-06,3.891423672064442e-07,Unknown
0.059711538000000175,2.786286809839107e-06,3.984805668400742e-06,2.543118041665421e-06,4.546388361595672e-06,9.350542135220089e-06,3.895942514220797e-07,Unknown
0.06023076900000035,2.793653275795476e-06,3.998682308380679e-06,2.545958272893648e-06,4.547353221496222e-06,9.374656484479429e-06,3.909109896331508e-07,Unknown
0.060750000000000526,2.788590267212728e-06,4.008152256794421e-06,2.5823747912904067e-06,4.545137149749118e-06,9.404315728488108e-06,3.916438253663186e-07,Unknown
0.06126923099999981,2.7604118547000133e-06,4.011183890990036e-06,2.6329733480468603e-06,4.540360849088533e-06,9.465485699954627e-06,3.9154057384106956e-07,Unknown
0.06178846199999999,2.71414497348926e-06,4.002996740917047e-06,2.669359532751062e-06,4.536248038289555e-06,9.5601864319416e-06,3.912425412249195e-07,Unknown
0.06230769200000008,2.6682728572046665e-06,3.982223903746485e-06,2.682929414145274e-06,4.533731966634121e-06,9.64365398164861e-06,3.909851541104482e-07,Unknown
0.06282692300000026,2.634831212359184e-06,3.95627106271024e-06,2.6856852897591536e-06,4.532292005843466e-06,9.680085573446206e-06,3.905991303791978e-07,Unknown
0.06334615400000043,2.6079455693012067e-06,3.932871688790258e-06,2.685246908633086e-06,4.530155687054735e-06,9.688669842379392e-06,3.897905714129379e-07,Unknown
0.06386538500000061,2.5790159492282715e-06,3.912850458938576e-06,2.6793158338307624e-06,4.5260592094221065e-06,9.699857089413956e-06,3.8879150734622e-07,Unknown
0.06438461499999981,2.5532080570129747e-06,3.893370372488664e-06,2.6699320349621104e-06,4.5219926743550326e-06,9.72314870114608e-06,3.883727782732549e-07,Unknown
0.06490384599999999,2.5407071780340766e-06,3.87352263854697e-06,2.6625310664887378e-06,4.5206457392119645e-06,9.747010406377998e-06,3.889983370719324e-07,Unknown
0.06542307700000016,2.541951183631692e-06,3.856508715638681e-06,2.658840698699621e-06,4.523817243193924e-06,9.74889692074818e-06,3.904538313525651e-07,Unknown
0.06594230800000034,2.5493973896233585e-06,3.846875931625637e-06,2.6559881691483187e-06,4.531427460447779e-06,9.739457931970224e-06,3.922464509674487e-07,Unknown
0.06646153800000043,2.5556035249611785e-06,3.845690986138761e-06,2.6495202754292904e-06,4.540077043454735e-06,9.754129034881494e-06,3.94244863531869e-07,Unknown
0.0669807690000006,2.5574618059264405e-06,3.849615494409708e-06,2.6412254121903394e-06,4.546281760905909e-06,9.80740159272233e-06,3.9673947268693883e-07,Unknown
0.0674999999999999,2.556876095250495e-06,3.855695052317058e-06,2.638148439289173e-06,4.549690660567338e-06,9.88627808578482e-06,3.997670139108165e-07,Unknown
0.06801923100000007,2.5565450824415463e-06,3.862380421662912e-06,2.6450202619422308e-06,4.551794438203614e-06,9.956540159420408e-06,4.028848135916877e-07,Unknown
0.06853846200000024,2.556583747670273e-06,3.867569086649909e-06,2.6602827494057137e-06,4.553119481413777e-06,1.0000330704917968e-05,4.0555846895176e-07,Unknown
0.06905769200000034,2.556570194350912e-06,3.869685866912464e-06,2.6743971416508803e-06,4.553207195545413e-06,1.0039835886529632e-05,4.075381391224062e-07,Unknown
0.06957692300000051,2.556942470189778e-06,3.869246520272976e-06,2.680054852127912e-06,4.553201803000746e-06,1.0093854618434571e-05,4.090653923980336e-07,Unknown
0.07009615400000069,2.557621135367577e-06,3.868921792269213e-06,2.6807752998500514e-06,4.553880604475554e-06,1.0150132768988769e-05,4.105052530002554e-07,Unknown
0.07061538499999997,2.5576598291852926e-06,3.872519765664535e-06,2.681456614610353e-06,4.554160169434035e-06,1.0194802936798566e-05,4.119651541680639e-07,Unknown
0.07113461500000007,2.5587059039064918e-06,3.882474058056564e-06,2.681729009948578e-06,4.553383986559501e-06,1.023153423522578e-05,4.1336849050410475e-07,Unknown
0.07165384600000024,2.569679579431971e-06,3.896903879728404e-06,2.6817358437453816e-06,4.550423087602722e-06,1.0270345666492986e-05,4.145739058036875e-07,Unknown
0.07217307700000042,2.5991974133760672e-06,3.910802818457794e-06,2.682203154901593e-06,4.539638893082521e-06,1.0313909135268396e-05,4.153162151603657e-07,Unknown
0.0726923080000006,2.638535170393344e-06,3.9215894027288e-06,2.6828707541784247e-06,4.513689767834313e-06,1.0347110764031291e-05,4.153094871054866e-07,Unknown
0.07321153800000069,2.6679480091979773e-06,3.931010028162809e-06,2.685616933794641e-06,4.477908047335416e-06,1.0356657527736394e-05,4.146688902163958e-07,Unknown
0.07373076899999997,2.6804603968555e-06,3.942232870782332e-06,2.6928473053583604e-06,4.44968821704232e-06,1.035448740678337e-05,4.137793632569021e-07,Unknown
0.07425000000000015,2.682937562822183e-06,3.956803949606438e-06,2.7064089141835507e-06,4.436233968672856e-06,1.035429218083996e-05,4.129525720405519e-07,Unknown
0.07476923100000032,2.6813889374921057e-06,3.974393994492768e-06,2.7221949035548635e-06,4.430790561500643e-06,1.0354539720616846e-05,4.1244755224505577e-07,Unknown
0.0752884620000005,2.676346702347909e-06,3.992042008990082e-06,2.731733958831788e-06,4.42677249089911e-06,1.0354676720545375e-05,4.122586704518213e-07,Unknown
0.07580769200000059,2.6665722774670075e-06,4.003969067685564e-06,2.7351925016858365e-06,4.421877144218679e-06,1.0353364133062325e-05,4.122357400592236e-07,Unknown
0.07632692299999988,2.6539766675980917e-06,4.006967394347733e-06,2.736246825785209e-06,4.41717165056186e-06,1.03501555172358e-05,4.125117537997943e-07,Unknown
0.07684615400000006,2.6433715107784798e-06,4.002358536615447e-06,2.739173332113103e-06,4.414434420515474e-06,1.0356407678783685e-05,4.133029088928712e-07,Unknown
0.07736538500000023,2.6367117742540123e-06,3.992904553550363e-06,2.746928965374703e-06,4.413083119155756e-06,1.0372964213646187e-05,4.143812640150858e-07,Unknown
0.07788461500000032,2.632189078989233e-06,3.983890043786112e-06,2.752691133526376e-06,4.4123757450880405e-06,1.0387499441589267e-05,4.151785128772653e-07,Unknown
0.0784038460000005,2.628186431277105e-06,3.981137100901975e-06,2.753571290631958e-06,4.412578847893996e-06,1.0399423683785872e-05,4.157634789408294e-07,Unknown
0.07892307700000067,2.625774685330841e-06,3.984411204845897e-06,2.753811403016948e-06,4.40649371150618e-06,1.0420995376048698e-05,4.1676913561671445e-07,Unknown
0.07944230799999996,2.6269481238933178e-06,3.989139405765966e-06,2.752414297002104e-06,4.371107034545332e-06,1.0477118217067964e-05,4.183295572700838e-07,Unknown
0.07996153800000005,2.6305718154118823e-06,3.992592280094257e-06,2.7491076924541405e-06,4.2966034471537305e-06,1.0576287307686978e-05,4.198062256912478e-07,Unknown
0.08048076900000023,2.63418965315989e-06,3.995363107636679e-06,2.748703542488475e-06,4.22009677947813e-06,1.0686693173407012e-05,4.204580473793431e-07,Unknown
0.0810000000000004,2.6364206106010257e-06,3.999547101654591e-06,2.752197411432706e-06,4.185404006467701e-06,1.0784057321031236e-05,4.204075550024837e-07,Unknown
0.08151923100000058,2.635847100483372e-06,4.007030859308645e-06,2.7550641036891706e-06,4.184781022719899e-06,1.087048442697105e-05,4.202662341936906e-07,Unknown
0.08203846199999987,2.6337553265650727e-06,4.017145622662771e-06,2.754937974669303e-06,4.1832549360263176e-06,1.0951899583373636e-05,4.201963110268347e-07,Unknown
0.08255769199999996,2.633901793825563e-06,4.025667298861438e-06,2.754834996164324e-06,4.173743113801897e-06,1.1035299517327703e-05,4.200363298498108e-07,Unknown
0.08307692300000014,2.6385088589147744e-06,4.030270907465925e-06,2.753673481455416e-06,4.170808307192441e-06,1.1130656382963748e-05,4.197462478619272e-07,Unknown
0.08359615400000031,2.647805537226601e-06,4.033136918254522e-06,2.74925697272141e-06,4.171049668814179e-06,1.1257694849675008e-05,4.195805088672968e-07,Unknown
0.08411538500000049,2.659448133472179e-06,4.03763026943562e-06,2.747396688683936e-06,4.156692466601132e-06,1.1431059750765716e-05,4.1959500056236057e-07,Unknown
0.08463461500000058,2.670047663516258e-06,4.047030589636063e-06,2.7473154589825844e-06,4.126445989652641e-06,1.1618642894465194e-05,4.194624796592786e-07,Unknown
0.08515384599999987,2.6789437440372984e-06,4.05836501767378e-06,2.747729704607298e-06,4.096584536390906e-06,1.1765346858941072e-05,4.191630686033528e-07,Unknown
0.08567307700000004,2.688539936116721e-06,4.0647450534893446e-06,2.7581691281273183e-06,4.079771108724289e-06,1.1863447085472673e-05,4.18999810176209e-07,Unknown
0.08619230800000022,2.7019274410146133e-06,4.067186416338849e-06,2.7831693098649573e-06,4.074984124683705e-06,1.194938126885395e-05,4.190272447173472e-07,Unknown
0.08671153800000031,2.7201843027660022e-06,4.071089376928876e-06,2.816838375971442e-06,4.074902751878899e-06,1.2063661641519457e-05,4.1918373803333e-07,Unknown
0.08723076900000049,2.7414350817034734e-06,4.0810437217324735e-06,2.8502600280224666e-06,4.075571881942637e-06,1.2220298330835406e-05,4.196154635548809e-07,Unknown
0.08775000000000066,2.762765588890373e-06,4.10022162031821e-06,2.8802564931278404e-06,4.076375362501732e-06,1.23839288214536e-05,4.2047846728960106e-07,Unknown
0.08826923099999995,2.782435571761904e-06,4.124702643468004e-06,2.9071434457998333e-06,4.076767896121583e-06,1.2512804743028424e-05,4.21748583260965e-07,Unknown
0.08878846200000012,2.799769412322035e-06,4.146129650600386e-06,2.928750380026857e-06,4.076764812893912e-06,1.2609253150593155e-05,4.23338524084843e-07,Unknown
0.08930769200000022,2.812994589419749e-06,4.159869295937792e-06,2.9440531666817222e-06,4.0768453567087365e-06,1.2701860456116004e-05,4.251471053730634e-07,Unknown
0.08982692300000039,2.8198159077219684e-06,4.162880799743012e-06,2.9504622070215737e-06,4.07771288877603e-06,1.281197713064814e-05,4.268961078375868e-07,Unknown
0.09034615400000057,2.821246817642657e-06,4.15435388888346e-06,2.949528291716829e-06,4.080607004073049e-06,1.292691099936091e-05,4.28183408392504e-07,Unknown
0.09086538499999985,2.82109845841908e-06,4.140962068968045e-06,2.9547319876780714e-06,4.085611292772187e-06,1.3006364766934787e-05,4.2890366830980214e-07,Unknown
0.09138461499999995,2.8218584363839537e-06,4.129210943195269e-06,2.969807952235779e-06,4.090777729657394e-06,1.3042525202673538e-05,4.292791382341157e-07,Unknown
0.09190384600000012,2.8241945384347243e-06,4.119919305561343e-06,2.983668812281965e-06,4.093028256452299e-06,1.3068885068627924e-05,4.295509791694843e-07,Unknown
0.0924230770000003,2.829422356078326e-06,4.113364359148593e-06,2.993478445190621e-06,4.091236040719949e-06,1.3105733633453169e-05,4.298756381640786e-07,Unknown
0.09294230800000047,2.839068546415288e-06,4.11068713149779e-06,2.999246161669111e-06,4.089156736726764e-06,1.3149230768994844e-05,4.3021648911508406e-07,Unknown
0.09346153800000057,2.850169116075836e-06,4.11165255770823e-06,2.9973940980742944e-06,4.090485585409098e-06,1.317801944549951e-05,4.3035425054402083e-07,Unknown
0.09398076899999985,2.856416905729008e-06,4.113282478506505e-06,2.9917516298063e-06,4.092724989094092e-06,1.317020385922976e-05,4.3016503155481613e-07,Unknown
0.09450000000000003,2.8562226732815536e-06,4.112566787189782e-06,2.9885423776338523e-06,4.0929237021980524e-06,1.314311731761729e-05,4.297218548171239e-07,Unknown
0.0950192310000002,2.853583491039512e-06,4.110428491209957e-06,2.989423985492525e-06,4.0940352941451785e-06,1.3126645127954065e-05,4.291477365567233e-07,Unknown
0.09553846200000038,2.8543187555326163e-06,4.111853375997504e-06,2.991248714248116e-06,4.098607837721059e-06,1.3123428903988929e-05,4.2864012282137227e-07,Unknown
0.09605769200000047,2.863488059126092e-06,4.119808570070406e-06,2.9913418373563752e-06,4.102639661476954e-06,1.3125119587290812e-05,4.282618773043229e-07,Unknown
0.09657692300000065,2.878173246076003e-06,4.1285193076031e-06,2.9928968722545222e-06,4.10261607885839e-06,1.3126718245702162e-05,4.277889113248649e-07,Unknown
0.09709615399999993,2.888782896143652e-06,4.130012510139347e-06,2.9992698845707696e-06,4.10077662755521e-06,1.3126448899506772e-05,4.270529994449079e-07,Unknown
0.09761538500000011,2.889813966628007e-06,4.124518959860588e-06,3.010635901167551e-06,4.098529924963994e-06,1.312535003410164e-05,4.259644563875673e-07,Unknown
0.0981346150000002,2.8810197219701643e-06,4.116888576630819e-06,3.027508982681203e-06,4.096481836983708e-06,1.3127547585307444e-05,4.24736854726691e-07,Unknown
0.09865384600000038,2.8670575654377925e-06,4.109011562010777e-06,3.051647533381727e-06,4.097969461135871e-06,1.3144486841606008e-05,4.239408677131792e-07,Unknown
0.09917307700000055,2.85473331538881e-06,4.0991465325769625e-06,3.0821913643727783e-06,4.102125046833275e-06,1.3189956890133752e-05,4.2386601505480715e-07,Unknown
0.09969230799999984,2.845817936393422e-06,4.084021068221065e-06,3.1119773788810662e-06,4.104386181425145e-06,1.325609801523628e-05,4.245386167043481e-07,Unknown
0.10021153799999993,2.8402878536415703e-06,4.064554122147781e-06,3.1319661857027014e-06,4.104597464504168e-06,1.331743190237751e-05,4.26391372756841e-07,Unknown
0.10073076900000011,2.841656571211989e-06,4.048211750334206e-06,3.1372381098646765e-06,4.1046545253625385e-06,1.3365382935572476e-05,4.303440567050905e-07,Unknown
0.10125000000000028,2.8563564626866376e-06,4.040623430511944e-06,3.131880190274398e-06,4.104839950188052e-06,1.3418694719381671e-05,4.365923087210274e-07,Unknown
0.10176923100000046,2.87978359191114e-06,4.040344749662769e-06,3.127378130522654e-06,4.1050122934770855e-06,1.3509059839401072e-05,4.436380596559245e-07,Unknown
0.10228846200000064,2.8946346711056765e-06,4.041951591248242e-06,3.127691399927978e-06,4.105025140448306e-06,1.3640524808425633e-05,4.496266153334108e-07,Unknown
0.10280769199999984,2.893242654097908e-06,4.040380031955901e-06,3.1266490604802032e-06,4.1044490120113904e-06,1.3766040661611856e-05,4.538244251884981e-07,Unknown
0.10332692300000001,2.881125700882227e-06,4.035721129911327e-06,3.1209861700559998e-06,4.103193590664625e-06,1.3842711294986128e-05,4.563977029237912e-07,Unknown
0.10384615400000019,2.8692926123619114e-06,4.0317452669863965e-06,3.1136859252628814e-06,4.102302765307796e-06,1.3877567505054624e-05,4.577648044632721e-07,Unknown
0.10436538500000037,2.865604275067963e-06,4.029712110038608e-06,3.1076166259231454e-06,4.101877111683189e-06,1.3904081754527875e-05,4.582206882536379e-07,Unknown
0.10488461500000046,2.8663520719215194e-06,4.028538349354812e-06,3.10406792921847e-06,4.1005609040170286e-06,1.3959150689924836e-05,4.57748138495985e-07,Unknown
0.10540384600000063,2.864377364877893e-06,4.027835470899278e-06,3.104622950455566e-06,4.098302182230736e-06,1.4058310101361476e-05,4.564513575700788e-07,Unknown
0.10592307699999992,2.859180401067212e-06,4.0289247466578205e-06,3.1084249247747382e-06,4.097169889582416e-06,1.4171071124438586e-05,4.5492055293825045e-07,Unknown
0.1064423080000001,2.854330102307962e-06,4.032621296660203e-06,3.110886580695719e-06,4.097980950213585e-06,1.4258826658195716e-05,4.536946422259717e-07,Unknown
0.10696153800000019,2.852140158281519e-06,4.035962778997012e-06,3.109161835170234e-06,4.097443283114069e-06,1.4317268034284933e-05,4.5295652672636326e-07,Unknown
0.10748076900000036,2.852876877646035e-06,4.036650405287959e-06,3.1062777161436456e-06,4.090388720417763e-06,1.4365043552556065e-05,4.526969522441664e-07,Unknown
0.10800000000000054,2.852815928164892e-06,4.03681590935862e-06,3.1059863070353776e-06,4.073038417369313e-06,1.4421000324599014e-05,4.5276995100496566e-07,Unknown
0.10851923099999983,2.8466274693649768e-06,4.038725092237747e-06,3.104408220186824e-06,4.044550567304067e-06,1.4491383203573215e-05,4.530141211357379e-07,Unknown
0.109038462,2.836853336370352e-06,4.042131247184927e-06,3.0950445301209004e-06,4.007398493109152e-06,1.457016652328134e-05,4.533649427628178e-07,Unknown
0.1095576920000001,2.829009281279876e-06,4.045515754795847e-06,3.082675076567424e-06,3.966073918599142e-06,1.464983191825528e-05,4.538210070556086e-07,Unknown
0.11007692300000027,2.8221014575431863e-06,4.047410394787359e-06,3.076824973954597e-06,3.9268224769991135e-06,1.472445231063432e-05,4.543839728697519e-07,Unknown
0.11059615400000045,2.8152421635613867e-06,4.047867438623522e-06,3.076187165878022e-06,3.898574287005688e-06,1.4789194200895067e-05,4.550237560190841e-07,Unknown
0.11111538500000062,2.8112270637692456e-06,4.046892161634774e-06,3.076299372995544e-06,3.887365213438803e-06,1.484399030882768e-05,4.5564867636991707e-07,Unknown
0.11163461499999983,2.8110444310398425e-06,4.042741899424842e-06,3.0765733775144685e-06,3.888282317288296e-06,1.489376623999819e-05,4.561106634367542e-07,Unknown
0.112153846,2.8140774665302203e-06,4.033888688256996e-06,3.0757944402724367e-06,3.891206768588182e-06,1.494322309763806e-05,4.562838263770826e-07,Unknown
0.11267307700000018,2.8199635554403218e-06,4.0229027467833366e-06,3.0752778276128768e-06,3.891274135505787e-06,1.4988666427707789e-05,4.560888666105482e-07,Unknown
0.11319230800000035,2.8261665860138294e-06,4.015031327369055e-06,3.079511824257305e-06,3.889130553902023e-06,1.5018092265530552e-05,4.556060955014069e-07,Unknown
0.11371153800000044,2.829162477263185e-06,4.010800935070953e-06,3.085745849429392e-06,3.8888134505373605e-06,1.5028201442964762e-05,4.552007707044305e-07,Unknown
0.11423076900000062,2.8283568272625883e-06,4.008332796172971e-06,3.0838253864224124e-06,3.885679146932135e-06,1.502935728279824e-05,4.551338927779096e-07,Unknown
0.11474999999999991,2.8253293162146995e-06,4.006205216792589e-06,3.074711123092534e-06,3.860712131868037e-06,1.5029043044018727e-05,4.55333236245029e-07,Unknown
0.11526923100000008,2.82102366521089e-06,4.002786755612827e-06,3.069013132320236e-06,3.8145723323802618e-06,1.502986895774156e-05,4.556292856474521e-07,Unknown
0.11578846200000026,2.81552195468136e-06,3.99951065609302e-06,3.0715903264417656e-06,3.7762421753833753e-06,1.5027019211818609e-05,4.558139831385422e-07,Unknown
0.11630769200000035,2.810364668590744e-06,3.997610727440878e-06,3.078706574153264e-06,3.759391034952209e-06,1.50055459261292e-05,4.5583404916663764e-07,Unknown
0.11682692300000053,2.8087411598685868e-06,3.995994294291608e-06,3.080240431136285e-06,3.755466634451055e-06,1.4976246839238704e-05,4.558925419526288e-07,Unknown
0.11734615399999981,2.8102836430748422e-06,3.9926402153784064e-06,3.0717219881025934e-06,3.756704361714714e-06,1.4970634044029696e-05,4.560590379097601e-07,Unknown
0.11786538499999999,2.8115350926513145e-06,3.987241156501763e-06,3.058321538731088e-06,3.758936514174888e-06,1.4988495439396346e-05,4.5628814995674926e-07,Unknown
0.11838461500000008,2.811934455936958e-06,3.981895598284856e-06,3.048102160571307e-06,3.760101050540779e-06,1.5010580178069668e-05,4.565030262180925e-07,Unknown
0.11890384600000026,2.81203791026458e-06,3.979485512229703e-06,3.044039493165944e-06,3.760393539353873e-06,1.502604749535174e-05,4.56566153261401e-07,Unknown
0.11942307700000043,2.8120068763227216e-06,3.984905011242571e-06,3.041448624354826e-06,3.760440326882768e-06,1.5037095879338144e-05,4.565226657781778e-07,Unknown
0.11994230800000061,2.8120686152662584e-06,3.994169520889517e-06,3.0380925654712093e-06,3.760480604100057e-06,1.5073194756059512e-05,4.5646393310585913e-07,Unknown
0.12046153799999981,2.8120577030720784e-06,3.994796550647233e-06,3.034863224760965e-06,3.760343564426244e-06,1.5154989187388075e-05,4.5641003607381645e-07,Unknown
0.12098076899999999,2.812068202280193e-06,3.988943509942996e-06,3.031869484276198e-06,3.758564683051407e-06,1.525984463411249e-05,4.564144224743577e-07,Unknown
0.12150000000000016,2.812104985972444e-06,3.987028465362102e-06,3.029620341212824e-06,3.7537805360699354e-06,1.536171500097221e-05,4.5668781158454966e-07,Unknown
0.12201923100000034,2.812126563856755e-06,3.987226336252046e-06,3.02861050044206e-06,3.74793680919003e-06,1.5455020616561444e-05,4.573271573884836e-07,Unknown
0.12253846200000051,2.8101526997041057e-06,3.987902771870924e-06,3.029173600416346e-06,3.7446366922495497e-06,1.5543938943720653e-05,4.580009304532603e-07,Unknown
0.1230576920000006,2.8049264798667883e-06,3.992922933063059e-06,3.032127837853445e-06,3.7443722597501743e-06,1.564107833204404e-05,4.584032798636557e-07,Unknown
0.1235769229999999,2.7987823071383574e-06,3.998569212057819e-06,3.0376979107031826e-06,3.7451421564669006e-06,1.5760460228110923e-05,4.585937682955492e-07,Unknown
0.12409615400000007,2.79380601626889e-06,4.000772120985797e-06,3.041768119935494e-06,3.7457297400950967e-06,1.591186227191307e-05,4.587216748274577e-07,Unknown
0.12461538500000024,2.788819761149241e-06,4.000497935181124e-06,3.0425585418613124e-06,3.745679887227212e-06,1.6095866537258887e-05,4.5887226107833554e-07,Unknown
0.12513461500000034,2.7819082331024564e-06,3.996384630063279e-06,3.042341835840528e-06,3.745023986520751e-06,1.628774327936482e-05,4.589054676474196e-07,Unknown
0.1256538460000005,2.775575813685116e-06,3.984118466264215e-06,3.0386573101105778e-06,3.744190027093907e-06,1.6448320985867794e-05,4.584884558662629e-07,Unknown
0.1261730770000007,2.7722205167091493e-06,3.9625821109150815e-06,3.029411601929652e-06,3.743917157727876e-06,1.6564972175101664e-05,4.576922836103194e-07,Unknown
0.12669230799999998,2.770057323512072e-06,3.940508523805644e-06,3.018094247244605e-06,3.7445500016100927e-06,1.6659952362971868e-05,4.569473589239221e-07,Unknown
0.12721153800000007,2.7676587125296395e-06,3.92637429922605e-06,3.0084262485218297e-06,3.7455864893852304e-06,1.6762020249103226e-05,4.564676028634674e-07,Unknown
0.12773076900000024,2.76581920804727e-06,3.918781195482754e-06,3.0018861586150107e-06,3.746466086785949e-06,1.6876908369385535e-05,4.561761179568938e-07,Unknown
0.12825000000000042,2.765385142101889e-06,3.914144445305181e-06,2.998491441035228e-06,3.746891711376843e-06,1.6977308853819395e-05,4.5595490539045843e-07,Unknown
0.1287692310000006,2.7655250861664765e-06,3.91201590617266e-06,2.9976391462135457e-06,3.7468401014706496e-06,1.703940800078583e-05,4.557970487149729e-07,Unknown
0.12928846199999988,2.765578646655953e-06,3.912291868945549e-06,2.997668323989508e-06,3.746454219807518e-06,1.7071274309628655e-05,4.55822662454927e-07,Unknown
0.12980769199999997,2.765508515350304e-06,3.912765600474536e-06,2.996452238209869e-06,3.745851727713319e-06,1.7090405567855525e-05,4.5618127851507277e-07,Unknown
0.13032692300000015,2.765137709978096e-06,3.912463174944324e-06,2.9880996955284843e-06,3.744359198125321e-06,1.7107629256718656e-05,4.568465594273093e-07,Unknown
0.13084615400000033,2.7654146710415705e-06,3.912367902352401e-06,2.9715687739812006e-06,3.740798671073636e-06,1.7127810103608575e-05,4.576092951600805e-07,Unknown
0.1313653850000005,2.768365665815163e-06,3.912259659278738e-06,2.9599358301336343e-06,3.7352292852223937e-06,1.7146666745011037e-05,4.583485117869769e-07,Unknown
0.1318846150000006,2.773942954712405e-06,3.911950064082004e-06,2.957829613987368e-06,3.729560481512009e-06,1.7157872757116284e-05,4.590806556356073e-07,Unknown
0.13240384599999988,2.778449877505586e-06,3.91197543705157e-06,2.9589143770445807e-06,3.725960587490539e-06,1.716229938586758e-05,4.597429736398495e-07,Unknown
0.13292307700000006,2.779738399200403e-06,3.910278504635309e-06,2.9614815115033005e-06,3.7247213730891113e-06,1.716322987567577e-05,4.601432510434894e-07,Unknown
0.13344230800000023,2.7797646720741787e-06,3.900789532908428e-06,2.9664425060243064e-06,3.7248381986294494e-06,1.7162611634673545e-05,4.602528794394154e-07,Unknown
0.13396153800000032,2.779570118192833e-06,3.880427761038554e-06,2.973310665928387e-06,3.725591326528461e-06,1.716198695696454e-05,4.6026969266198957e-07,Unknown
0.1344807690000005,2.7787898924427494e-06,3.859013537603053e-06,2.978777363547244e-06,3.7262654863693375e-06,1.716161244453088e-05,4.602769541524051e-07,Unknown
0.13500000000000068,2.7788268145422583e-06,3.846610649981299e-06,2.9815529617510437e-06,3.726511292030776e-06,1.716203581065565e-05,4.602086788284743e-07,Unknown
0.13551923099999996,2.780429410990374e-06,3.8404039304355225e-06,2.983330204484869e-06,3.726498213196644e-06,1.7163782111253252e-05,4.60059903626994e-07,Unknown
0.13603846200000014,2.781594778805604e-06,3.835269212857467e-06,2.9849475959007598e-06,3.726573720248845e-06,1.716994563095531e-05,4.598996686550257e-07,Unknown
0.13655769200000023,2.781140068700513e-06,3.8302268676395365e-06,2.985767023998974e-06,3.726901436100792e-06,1.7186929142169394e-05,4.597856577050802e-07,Unknown
0.1370769230000004,2.7802391273404973e-06,3.828551858947683e-06,2.985482134491659e-06,3.726394698194454e-06,1.7213975001490307e-05,4.596673025358923e-07,Unknown
0.13759615400000058,2.7796323943114485e-06,3.83049597022776e-06,2.984527776653645e-06,3.724244420913751e-06,1.7242905816988337e-05,4.592902350005084e-07,Unknown
0.13811538499999987,2.7792147076839496e-06,3.827362174434009e-06,2.982689230984914e-06,3.7206462785564714e-06,1.7270407260985585e-05,4.583174899398931e-07,Unknown
0.13863461499999996,2.778442106761897e-06,3.81438274814151e-06,2.9809991860921493e-06,3.714094573812741e-06,1.7302249037567933e-05,4.568895654066527e-07,Unknown
0.13915384600000014,2.777753870044e-06,3.796245178602447e-06,2.980103078644472e-06,3.7005988730893952e-06,1.734873164100369e-05,4.555802665128426e-07,Unknown
0.1396730770000003,2.7795299462243924e-06,3.777985477622885e-06,2.978972707902031e-06,3.67583945123904e-06,1.741430504960791e-05,4.546277716258127e-07,Unknown
0.1401923080000005,2.7830124370268586e-06,3.762921974715401e-06,2.9782205472303343e-06,3.638743110460089e-06,1.749065078129738e-05,4.539715967408213e-07,Unknown
0.14071153800000058,2.78457113741101e-06,3.7546759224154247e-06,2.978236709244589e-06,3.595732466007648e-06,1.756671897975464e-05,4.534490158938951e-07,Unknown
0.14123076899999987,2.784444237608348e-06,3.753489472399228e-06,2.9788000829581567e-06,3.5571995342851763e-06,1.764186382509512e-05,4.527411428106969e-07,Unknown
0.14175000000000004,2.7847695916292607e-06,3.755126848013318e-06,2.979211070960191e-06,3.528456396194602e-06,1.7723863190852888e-05,4.5199363298728086e-07,Unknown
0.14226923100000022,2.78463921211758e-06,3.757213876238125e-06,2.978623101497528e-06,3.5085078053771467e-06,1.781853795957766e-05,4.519020693985379e-07,Unknown
0.1427884620000004,2.783017000613721e-06,3.761238195112226e-06,2.978453944195511e-06,3.495481109901974e-06,1.7920209958532874e-05,4.527137102085391e-07,Unknown
0.1433076920000005,2.77788815305724e-06,3.7701693052205088e-06,2.978540190208118e-06,3.490428895731686e-06,1.801216598666524e-05,4.538992764484382e-07,Unknown
0.14382692300000066,2.7636865837491283e-06,3.78167368742202e-06,2.9783182231278885e-06,3.4909326146405164e-06,1.8084750709552324e-05,4.548759455998321e-07,Unknown
0.14434615399999995,2.7431347358104915e-06,3.788452952081035e-06,2.978225017435307e-06,3.48331762059714e-06,1.814399176794761e-05,4.5547049066530506e-07,Unknown
0.14486538500000012,2.727638263262522e-06,3.78956289165069e-06,2.9758743711552125e-06,3.4439558347313825e-06,1.820189175356896e-05,4.5576982042292587e-07,Unknown
0.14538461500000022,2.7195789603060848e-06,3.788719972242993e-06,2.974048820764783e-06,3.3403797004567594e-06,1.826935802394911e-05,4.558990789847542e-07,Unknown
0.1459038460000004,2.713691382425892e-06,3.7861817181941656e-06,2.9770205712144105e-06,3.1372641334972124e-06,1.834689939160718e-05,4.559397911681189e-07,Unknown
0.14642307700000057,2.703725019444906e-06,3.7770740313232906e-06,2.9786785983353467e-06,2.8182134261438696e-06,1.842210319506693e-05,4.5592953162596203e-07,Unknown
0.14694230799999985,2.687084675798026e-06,3.754014653197395e-06,2.975720787116916e-06,2.416427635931135e-06,1.848567698720974e-05,4.559615127287976e-07,Unknown
0.14746153799999995,2.6723401816168333e-06,3.7178975808572513e-06,2.973832439302072e-06,2.034954710744161e-06,1.854013057577066e-05,4.561353021940675e-07,Unknown
0.14798076900000012,2.667200812975303e-06,3.6811187092033233e-06,2.9741857721308385e-06,1.8109613705901613e-06,1.859246016877565e-05,4.563049298969666e-07,Unknown
0.1485000000000003,2.668245532439944e-06,3.654537986861429e-06,2.972936362401164e-06,1.765455371912046e-06,1.864528752875288e-05,4.561164717248386e-07,Unknown
0.14901923100000047,2.6698531687970245e-06,3.64012406948375e-06,2.9706156484609206e-06,1.7642110178684743e-06,1.869328878148614e-05,4.552340729291755e-07,Unknown
0.14953846200000065,2.670532804470101e-06,3.634802909716505e-06,2.969863036552206e-06,1.733820600775607e-06,1.873074223658884e-05,4.5343701036522443e-07,Unknown
0.15005769199999985,2.66854751385354e-06,3.6348060574338687e-06,2.9695524996971264e-06,1.714175242171599e-06,1.8756974486937797e-05,4.505123092396934e-07,Unknown
0.15057692300000003,2.6612561291576115e-06,3.6369959357651615e-06,2.969214505602233e-06,1.72425331843162e-06,1.8770161245610758e-05,4.461458128420302e-07,Unknown
0.1510961540000002,2.6495851535629007e-06,3.6386636024156326e-06,2.969971473608788e-06,1.7388417543360362e-06,1.876955045174916e-05,4.403466220564547e-07,Unknown
0.15161538500000038,2.636851315529372e-06,3.63824783140602e-06,2.97067367772044e-06,1.7435538780760298e-06,1.876196818712635e-05,4.339757330803814e-07,Unknown
0.15213461500000047,2.623988492202947e-06,3.6360339101621335e-06,2.970697492152777e-06,1.7429993127751905e-06,1.8754826048907083e-05,4.2865852063492325e-07,Unknown
0.15265384600000065,2.6078749490642776e-06,3.6326573362608753e-06,2.9707631007904964e-06,1.744449228639709e-06,1.874963294375312e-05,4.2594984742826425e-07,Unknown
0.15317307699999994,2.5838659605135723e-06,3.625675580022024e-06,2.971830519725198e-06,1.744424397861284e-06,1.874504332329602e-05,4.2623380762425377e-07,Unknown
0.1536923080000001,2.555090222794963e-06,3.6113296383612314e-06,2.9747716042150327e-06,1.7453039324782396e-06,1.873998466200068e-05,4.283022071894705e-07,Unknown
0.1542115380000002,2.5322897407833347e-06,3.5899583143145323e-06,2.9760229043040218e-06,1.7570709959506568e-06,1.8733703331231724e-05,4.302391500990605e-07,Unknown
0.15473076900000038,2.517842822556788e-06,3.564264421809906e-06,2.971820643295243e-06,1.7726342707397024e-06,1.872431864603499e-05,4.311256053561405e-07,Unknown
0.15525000000000055,2.5063200484259592e-06,3.535638489083831e-06,2.9703662945065125e-06,1.7774027564101397e-06,1.871083868446152e-05,4.313017358997097e-07,Unknown
0.15576923099999984,2.494674291216648e-06,3.5077065989753727e-06,2.977072722446021e-06,1.771640367426053e-06,1.869893017731895e-05,4.312214746296922e-07,Unknown
0.15628846200000002,2.484541876754165e-06,3.4877327212266445e-06,2.9801751536681373e-06,1.7630637326697e-06,1.869621173080385e-05,4.31002219398851e-07,Unknown
0.1568076920000001,2.4831135605105814e-06,3.478439491069692e-06,2.9756930021694777e-06,1.7552413047543706e-06,1.870505197506687e-05,4.3085025194591365e-07,Unknown
0.15732692300000028,2.493271022930425e-06,3.4763967578269624e-06,2.971571931382771e-06,1.7476443436743973e-06,1.8728527826701062e-05,4.311349835012506e-07,Unknown
0.15784615400000046,2.5073923235387677e-06,3.479012505457732e-06,2.9691668846557945e-06,1.7376115790731312e-06,1.876580580898841e-05,4.317443802228492e-07,Unknown
0.15836538500000064,2.518373338948709e-06,3.48460463029482e-06,2.967543110262721e-06,1.7235919921960134e-06,1.880554033093926e-05,4.3211578800192907e-07,Unknown
0.15888461499999984,2.525666849326336e-06,3.491035514651469e-06,2.9659149796934367e-06,1.7084650593039989e-06,1.884147373708139e-05,4.314895575896856e-07,Unknown
0.15940384600000002,2.530445471473941e-06,3.4949297848327183e-06,2.9648898345359147e-06,1.7010043421552802e-06,1.8877308721455395e-05,4.296024256367467e-07,Unknown
0.1599230770000002,2.5320177591685373e-06,3.494550475965132e-06,2.9681080288743543e-06,1.7014326740093191e-06,1.891848362497605e-05,4.274763306452373e-07,Unknown
0.16044230800000037,2.531145991699462e-06,3.495182194274215e-06,2.970870241043767e-06,1.7011576626733466e-06,1.8972315724410792e-05,4.2603161006109445e-07,Unknown
0.16096153800000046,2.5311498079073825e-06,3.500814947770826e-06,2.967118704197764e-06,1.7011228092235334e-06,1.90381948118486e-05,4.251409626601501e-07,Unknown
0.16148076900000063,2.532805945062972e-06,3.506052541703502e-06,2.9612869564169126e-06,1.698673425525554e-06,1.9105900392609203e-05,4.244354273914179e-07,Unknown
0.16199999999999992,2.5335371437664777e-06,3.5063940905439086e-06,2.958626613689143e-06,1.6907752348768838e-06,1.917249897142485e-05,4.238922697169337e-07,Unknown
0.1625192310000001,2.532657934511804e-06,3.504868080536496e-06,2.9586035700412945e-06,1.6852272574580037e-06,1.9241999010054342e-05,4.2375940858156345e-07,Unknown
0.16303846200000027,2.531853276582098e-06,3.5028585404978943e-06,2.9561015526930725e-06,1.6842204989879027e-06,1.9316707912423017e-05,4.239579605145847e-07,Unknown
0.16355769200000037,2.531555531144406e-06,3.498628568934408e-06,2.948795343940884e-06,1.6868744521651653e-06,1.9393787480517734e-05,4.242236816402899e-07,Unknown
0.16407692300000054,2.5312991579594643e-06,3.4939782296790545e-06,2.943006653734861e-06,1.6906460271744405e-06,1.94688978275666e-05,4.244499740517744e-07,Unknown
0.16459615399999983,2.530524238281464e-06,3.49107222753421e-06,2.9423776531543096e-06,1.68963881319827e-06,1.9545684370697614e-05,4.245151644810915e-07,Unknown
0.165115385,2.528585638809644e-06,3.4901061912872195e-06,2.94197049044643e-06,1.686528388818547e-06,1.9627415944906143e-05,4.244198971383965e-07,Unknown
0.1656346150000001,2.526050798699107e-06,3.492026077974745e-06,2.941397886981172e-06,1.6881498899985625e-06,1.970308444483288e-05,4.242555356575842e-07,Unknown
0.16615384600000027,2.5248290928251334e-06,3.496828393525404e-06,2.943798791174744e-06,1.693486371572929e-06,1.9757654316755977e-05,4.24007226235325e-07,Unknown
0.16667307700000045,2.5256936743201746e-06,3.5021677690116704e-06,2.946878955662583e-06,1.6969795928681517e-06,1.979207129570944e-05,4.236285504875924e-07,Unknown
0.16719230800000062,2.527267801842023e-06,3.5053383627904865e-06,2.948686624213592e-06,1.6968148976020909e-06,1.9821589377495795e-05,4.2305359809097276e-07,Unknown
0.16771153799999983,2.5280761755283504e-06,3.505613175637719e-06,2.950524897930297e-06,1.692645373851946e-06,1.9858032484651747e-05,4.220848034328544e-07,Unknown
0.168230769,2.527698698209393e-06,3.5042900302221552e-06,2.953629224615965e-06,1.6865506488024252e-06,1.9898101433140785e-05,4.204182738341136e-07,Unknown
0.16875000000000018,2.5261075801982085e-06,3.5026027443568816e-06,2.9566204847349035e-06,1.6827816690717237e-06,1.9920087795633803e-05,4.18031493670427e-07,Unknown
0.16926923100000035,2.523081149402281e-06,3.500793505391496e-06,2.955802026785454e-06,1.6821577523530315e-06,1.9908921853514256e-05,4.154216589513305e-07,Unknown
0.16978846200000053,2.519004921074891e-06,3.498444781964863e-06,2.9500583236743065e-06,1.6841895897458063e-06,1.9881361901739677e-05,4.1318416080485547e-07,Unknown
0.17030769200000062,2.5149473683383297e-06,3.4942067078256308e-06,2.942420074390106e-06,1.6843675713257158e-06,1.98594704685272e-05,4.113091911592384e-07,Unknown
0.1708269229999999,2.510949393632898e-06,3.4859318811640977e-06,2.9343669914807573e-06,1.6797752969222524e-06,1.9846228328995657e-05,4.092252243929487e-07,Unknown
0.17134615400000008,2.5066975746617813e-06,3.473226390636058e-06,2.922900856636036e-06,1.6766308273254742e-06,1.9831743925519528e-05,4.06803172318179e-07,Unknown
0.17186538500000026,2.501979334201549e-06,3.4608273633471067e-06,2.904700544101201e-06,1.6763452315909647e-06,1.980582674880067e-05,4.049165587851584e-07,Unknown
0.17238461500000035,2.4969115924995634e-06,3.45267002596565e-06,2.8830495091021163e-06,1.6762217366181204e-06,1.9774937813914187e-05,4.041516419271141e-07,Unknown
0.17290384600000053,2.492545884947204e-06,3.4459579499317404e-06,2.864014139212174e-06,1.67677410682043e-06,1.9753155110192013e-05,4.04026977086953e-07,Unknown
0.17342307699999981,2.4886837659330397e-06,3.4327716970235184e-06,2.8463976090663206e-06,1.6757657640788764e-06,1.974229734666372e-05,4.0402704441863547e-07,Unknown
0.173942308,2.483292121959308e-06,3.4066200615434927e-06,2.8262901067536317e-06,1.674127680727973e-06,1.973784448455757e-05,4.040383156734727e-07,Unknown
0.17446153800000008,2.475966832392251e-06,3.3796878368302006e-06,2.806123194983521e-06,1.6752827860154635e-06,1.9733578513733933e-05,4.040828837829303e-07,Unknown
0.17498076900000026,2.470264378305304e-06,3.3685454075205256e-06,2.794856108433465e-06,1.676079844526929e-06,1.972760802241733e-05,4.041825819812874e-07,Unknown
0.17550000000000043,2.46865542779581e-06,3.3674131873763213e-06,2.7980234492262077e-06,1.6742135220700354e-06,1.972987238828142e-05,4.042812256549918e-07,Unknown
0.1760192310000006,2.468682052784225e-06,3.3663436629092734e-06,2.8053777557847343e-06,1.6733150104339176e-06,1.9746212264283404e-05,4.0442246197228434e-07,Unknown
0.1765384619999999,2.4672712661518216e-06,3.359514548448952e-06,2.8047744800477464e-06,1.673044760077156e-06,1.977132053631828e-05,4.047185472707068e-07,Unknown
0.177057692,2.464335134265072e-06,3.3482126788203307e-06,2.7993302152010603e-06,1.6680386421281533e-06,1.9800373941429657e-05,4.051172130711613e-07,Unknown
0.17757692300000016,2.462113163976523e-06,3.343721033072958e-06,2.796358713012382e-06,1.6555317202166816e-06,1.983091029566899e-05,4.054734951951892e-07,Unknown
0.17809615400000034,2.460780900039917e-06,3.3440304964338674e-06,2.7970559545735984e-06,1.6355757405701848e-06,1.985956813983958e-05,4.0558362448018205e-07,Unknown
0.17861538500000051,2.4578929327804176e-06,3.3400293607021666e-06,2.796633970830196e-06,1.6104648678659531e-06,1.988610586913136e-05,4.052323434116421e-07,Unknown
0.1791346150000006,2.4529647806280912e-06,3.333153204580741e-06,2.796462067923922e-06,1.5874538364731338e-06,1.9918221526552745e-05,4.043721948634442e-07,Unknown
0.1796538459999999,2.445853478633839e-06,3.32642540386498e-06,2.8001176711126464e-06,1.5741399886391917e-06,1.9968948338967867e-05,4.033158897677084e-07,Unknown
0.18017307700000007,2.436365890130547e-06,3.3190509398040733e-06,2.8017870819244086e-06,1.5691508785808188e-06,2.0044191012801797e-05,4.0263709247156473e-07,Unknown
0.18069230800000025,2.4271638218009774e-06,3.308660715960429e-06,2.801468247637684e-06,1.5634097667758229e-06,2.013050317989001e-05,4.024818657315745e-07,Unknown
0.18121153800000034,2.419887047647859e-06,3.2905314346968366e-06,2.800164898984099e-06,1.5537816713445583e-06,2.020997990608578e-05,4.025154653888684e-07,Unknown
0.1817307690000005,2.413386006984744e-06,3.261042722426981e-06,2.7897849622170067e-06,1.5490653293424652e-06,2.028426051401052e-05,4.024696845913982e-07,Unknown
0.1822500000000007,2.406859459039981e-06,3.2233363732865744e-06,2.769716956250015e-06,1.555006750169664e-06,2.036923013849337e-05,4.021569724855635e-07,Unknown
0.18276923099999998,2.3998436564494224e-06,3.1841680198884296e-06,2.7473731627463444e-06,1.564242764101717e-06,2.047810994302482e-05,4.016756197204268e-07,Unknown
0.18328846200000015,2.3914560110184654e-06,3.147228873607683e-06,2.724583269307551e-06,1.5668517023969843e-06,2.060595750985462e-05,4.0124445807639764e-07,Unknown
0.18380769200000024,2.381463478769792e-06,3.113670554658107e-06,2.7063919127956925e-06,1.5652914127282089e-06,2.0726948592711025e-05,4.007896150312663e-07,Unknown
0.18432692300000042,2.371226409270671e-06,3.0831005807389246e-06,2.7022022509491407e-06,1.5655344132303829e-06,2.082320794146571e-05,4.000565752741368e-07,Unknown
0.1848461540000006,2.3610936682344643e-06,3.0562938951463523e-06,2.7041469135035995e-06,1.5642829164529636e-06,2.0901526777608888e-05,3.988548379116622e-07,Unknown
0.18536538499999988,2.3490220892298177e-06,3.036746405915761e-06,2.6919873882687943e-06,1.5626867397360157e-06,2.09773664047072e-05,3.975314058682021e-07,Unknown
0.18588461499999998,2.3342219284157343e-06,3.024515855493272e-06,2.654915487197052e-06,1.5642592567835927e-06,2.10610820211658e-05,3.967134466946165e-07,Unknown
0.18640384600000015,2.3211743297105377e-06,3.0166320233289176e-06,2.60448100805289e-06,1.5644108053652632e-06,2.114795304827395e-05,3.9651992193909684e-07,Unknown
0.18692307700000033,2.316692747350944e-06,3.010620875599432e-06,2.5659573058508074e-06,1.5686371689011298e-06,2.122192516876649e-05,3.9663373539010803e-07,Unknown
0.1874423080000005,2.316877716855252e-06,3.0066620770702736e-06,2.54924591003583e-06,1.5842597714733397e-06,2.1283478978300815e-05,3.967382213005498e-07,Unknown
0.1879615380000006,2.310640941245366e-06,3.007598751587571e-06,2.545538853112253e-06,1.5989529056698517e-06,2.1351849668737345e-05,3.9646647568909373e-07,Unknown
0.18848076899999988,2.297802659523488e-06,3.0127361042633185e-06,2.545490302070724e-06,1.603805991351076e-06,2.143775946750888e-05,3.952888127612588e-07,Unknown
0.18900000000000006,2.2850625281140157e-06,3.018525071533232e-06,2.5475201019659654e-06,1.6041831209666086e-06,2.153326122795064e-05,3.9288009357478637e-07,Unknown
0.18951923100000023,2.274188264590785e-06,3.023873100939207e-06,2.550827456141849e-06,1.6040397480448118e-06,2.161818816577599e-05,3.893732059406542e-07,Unknown
0.1900384620000004,2.263094177026204e-06,3.0283179937884613e-06,2.551535148851259e-06,1.6021910619853458e-06,2.1679431568912792e-05,3.85006148431891e-07,Unknown
0.1905576920000005,2.2502183767716896e-06,3.026796135283725e-06,2.548016142688316e-06,1.5932348099267256e-06,2.172667619466886e-05,3.800367461378829e-07,Unknown
0.19107692300000068,2.2369796990801828e-06,3.0106887490014294e-06,2.5418714981336626e-06,1.5732601070005314e-06,2.1774330655319143e-05,3.750092317927979e-07,Unknown
0.19159615399999996,2.227144193081518e-06,2.977133165846701e-06,2.536368950387267e-06,1.5490359314086734e-06,2.1819339296949307e-05,3.706353271083795e-07,Unknown
0.19211538500000014,2.223744511862226e-06,2.9339759177368657e-06,2.5313742350144744e-06,1.5308469276564703e-06,2.1848177981437773e-05,3.673266902618924e-07,Unknown
0.19263461500000023,2.225962838629753e-06,2.8931927757826426e-06,2.524479752801068e-06,1.5204756403268802e-06,2.185718366380193e-05,3.646268338853306e-07,Unknown
0.1931538460000004,2.228862261858796e-06,2.862663170876853e-06,2.510937855182375e-06,1.5147504470584912e-06,2.1857764862020136e-05,3.618714753474445e-07,Unknown
0.19367307700000058,2.2292744566064507e-06,2.8442281633359727e-06,2.4887216642092377e-06,1.5127148170396591e-06,2.1857837208796492e-05,3.592292096064193e-07,Unknown
0.19419230799999987,2.2297258831867733e-06,2.835943350321967e-06,2.4663394596151747e-06,1.5159707847364664e-06,2.1851308336428216e-05,3.571378805028275e-07,Unknown
0.19471153799999996,2.231441750041487e-06,2.834575884697939e-06,2.449938151617897e-06,1.523975301158737e-06,2.183371023809403e-05,3.5541682307147535e-07,Unknown
0.19523076900000014,2.2317475618484943e-06,2.835369842862924e-06,2.4397337616512105e-06,1.5342069199772385e-06,2.1812156789318545e-05,3.535076237307649e-07,Unknown
0.1957500000000003,2.2315829821529863e-06,2.830267984752105e-06,2.435545328985084e-06,1.5444350403833091e-06,2.179443757807252e-05,3.515771450185077e-07,Unknown
0.1962692310000005,2.230973344756539e-06,2.812203262014128e-06,2.4348948714666346e-06,1.5499007587410547e-06,2.1780380726627062e-05,3.502750584351344e-07,Unknown
0.19678846200000066,2.21858528374214e-06,2.785147809184871e-06,2.4348648538352093e-06,1.550394119839354e-06,2.176433651161414e-05,3.498265105698329e-07,Unknown
0.19730769199999987,2.183673484408644e-06,2.7612011647026823e-06,2.433760843937144e-06,1.550023645557181e-06,2.174195776501059e-05,3.502841424884409e-07,Unknown
0.19782692300000004,2.135719997727723e-06,2.7452204507801557e-06,2.431482861112162e-06,1.5479995971214782e-06,2.17244144770516e-05,3.517260722481452e-07,Unknown
0.19834615400000022,2.096264984509968e-06,2.732124577219073e-06,2.427939106419043e-06,1.5462939984638744e-06,2.173379064238561e-05,3.539060209659643e-07,Unknown
0.1988653850000004,2.0762896432252864e-06,2.7139987017086862e-06,2.420168394037684e-06,1.5470427508902382e-06,2.177483805708009e-05,3.562268644917387e-07,Unknown
0.1993846150000005,2.071142402631744e-06,2.685480403509752e-06,2.405174147364995e-06,1.5467959428380915e-06,2.1836914845523903e-05,3.581129319585912e-07,Unknown
0.19990384600000066,2.0711238201632694e-06,2.648498448414847e-06,2.3885827815978545e-06,1.5462062667500974e-06,2.191940959119316e-05,3.594077415198871e-07,Unknown
0.20042307699999995,2.0714154321600484e-06,2.612951462125551e-06,2.3830775108328164e-06,1.5473154769981883e-06,2.2037907257407397e-05,3.605232936723551e-07,Unknown
0.20094230800000012,2.0722598674875067e-06,2.589820325227876e-06,2.387977429291068e-06,1.5471348200014782e-06,2.2214378296473626e-05,3.616900355424191e-07,Unknown
0.20146153800000022,2.0745057948199845e-06,2.5812492892971603e-06,2.390357674013322e-06,1.5431870145739934e-06,2.245032356021328e-05,3.624060596813266e-07,Unknown
0.2019807690000004,2.0766704342618637e-06,2.5808116372245435e-06,2.385228228548436e-06,1.5376729930231169e-06,2.27142727057291e-05,3.624969635181833e-07,Unknown
0.20250000000000057,2.076569539853465e-06,2.581878087968597e-06,2.3757679464150865e-06,1.5336745565962172e-06,2.2978510343084984e-05,3.625922954178698e-07,Unknown
0.20301923099999986,2.0747804303140133e-06,2.5810786928599163e-06,2.36899473289247e-06,1.5315959488761766e-06,2.32457159530654e-05,3.632901407982131e-07,Unknown
0.20353846200000003,2.0724617721573125e-06,2.5769714380761927e-06,2.3688760889668347e-06,1.5311035614113727e-06,2.3533079695344152e-05,3.6446912838840404e-07,Unknown
0.20405769200000012,2.070173497127137e-06,2.570352470585772e-06,2.372096011778337e-06,1.5318657218573252e-06,2.3852217481950453e-05,3.652035895590031e-07,Unknown
0.2045769230000003,2.0692882035797965e-06,2.565169866177819e-06,2.37516160565694e-06,1.5314116492601796e-06,2.4203518468057243e-05,3.646874031455209e-07,Unknown
0.20509615400000047,2.06978519194642e-06,2.563423616035678e-06,2.374794468907643e-06,1.528208904132117e-06,2.4592711552687696e-05,3.63227272994598e-07,Unknown
0.20561538500000065,2.070367703004806e-06,2.5611897713247096e-06,2.368135541147679e-06,1.522861977806315e-06,2.503829964688136e-05,3.6195181798207627e-07,Unknown
0.20613461499999985,2.0709893988992703e-06,2.5548405187812675e-06,2.358368121214194e-06,1.5143096075648853e-06,2.5541680603659218e-05,3.616636904932065e-07,Unknown
0.20665384600000003,2.0719664736053203e-06,2.5416915588627185e-06,2.353102986714726e-06,1.505942854275894e-06,2.607603219980297e-05,3.621335178460161e-07,Unknown
0.2071730770000002,2.072323217664456e-06,2.522563834427114e-06,2.352419865507628e-06,1.5062956586763014e-06,2.662131400155347e-05,3.626400105729728e-07,Unknown
0.20769230800000038,2.070189672907868e-06,2.506300782996903e-06,2.3525423791067427e-06,1.5160527631631293e-06,2.7189785431783303e-05,3.62867010697734e-07,Unknown
0.20821153800000047,2.0636862603911348e-06,2.4977162312911264e-06,2.356808470785788e-06,1.5267566803907455e-06,2.7804199059706263e-05,3.6297143136709045e-07,Unknown
0.20873076900000065,2.051695404919772e-06,2.4928929898923308e-06,2.3643167894786145e-06,1.5303658168408056e-06,2.8454492339935584e-05,3.6309964695313394e-07,Unknown
0.20924999999999994,2.0368003777831223e-06,2.4856196893338133e-06,2.3679668154735097e-06,1.525733804220648e-06,2.9089076876036487e-05,3.632161572190979e-07,Unknown
0.2097692310000001,2.023873471382019e-06,2.4705332531452337e-06,2.3684238088598206e-06,1.5213920296875849e-06,2.9666024825737603e-05,3.632602621265368e-07,Unknown
0.2102884620000003,2.0132254873907023e-06,2.451702052456763e-06,2.36642028537358e-06,1.5276193252713198e-06,3.0197126667542163e-05,3.632602145101253e-07,Unknown
0.21080769200000038,2.00081312317522e-06,2.4403376850631137e-06,2.355387135431876e-06,1.5416302245825528e-06,3.072409756703484e-05,3.6327278260026914e-07,Unknown
0.21132692300000055,1.9827258497781016e-06,2.439599472697401e-06,2.3302147785509413e-06,1.551835133138519e-06,3.127726722711304e-05,3.63244325855563e-07,Unknown
0.21184615399999984,1.957642837541215e-06,2.443223703143487e-06,2.2933620004345624e-06,1.5543126160367804e-06,3.1849828181200484e-05,3.629814080351139e-07,Unknown
0.21236538500000002,1.9277585214806143e-06,2.433624599128581e-06,2.252798246311644e-06,1.5529600513430194e-06,3.24000730837388e-05,3.6228252402129524e-07,Unknown
0.2128846150000001,1.89655342037942e-06,2.4013030753944662e-06,2.2143308669357834e-06,1.551394629016519e-06,3.2898041896435075e-05,3.611132513023141e-07,Unknown
0.21340384600000029,1.8662634745834823e-06,2.36132257108876e-06,2.18072294571234e-06,1.5548613953318762e-06,3.335313096261248e-05,3.596151352031036e-07,Unknown
0.21392307700000046,1.8387256243837536e-06,2.3271758071554512e-06,2.154513316525217e-06,1.5688761243139783e-06,3.379289121713803e-05,3.580640130962806e-07,Unknown
0.21444230800000064,1.8177462444005187e-06,2.301215390166201e-06,2.136410572124948e-06,1.5866705132339283e-06,3.42338860667425e-05,3.5689279914459933e-07,Unknown
0.21496153799999984,1.8076325175505648e-06,2.2819799894540267e-06,2.124161309130188e-06,1.5934077088684555e-06,3.4665918667044855e-05,3.563568521953497e-07,Unknown
0.21548076900000002,1.80704150558738e-06,2.2662796115471376e-06,2.1145934525660908e-06,1.5866232494728476e-06,3.506386679412119e-05,3.562651076354001e-07,Unknown
0.2160000000000002,1.8087420801030336e-06,2.2542666737849597e-06,2.105388014874575e-06,1.5741841924761017e-06,3.5411293788223014e-05,3.563493186202018e-07,Unknown
0.21651923100000037,1.8079322883975372e-06,2.2492092411955684e-06,2.096709116470325e-06,1.5603276633655722e-06,3.5702904369217715e-05,3.564868464697097e-07,Unknown
0.21703846200000054,1.804122861942881e-06,2.2501950092725007e-06,2.0902820380711897e-06,1.549977463318306e-06,3.5938228905958994e-05,3.5660676160267375e-07,Unknown
0.21755769200000064,1.795556987580153e-06,2.250434544237193e-06,2.086471311036785e-06,1.5485417666850885e-06,3.612249562234599e-05,3.565844469874562e-07,Unknown
0.21807692299999992,1.7799297752946275e-06,2.244411250159663e-06,2.084730691941556e-06,1.5510886834696268e-06,3.6269190635328495e-05,3.562705503008852e-07,Unknown
0.2185961540000001,1.7619398865911465e-06,2.233224820908922e-06,2.084799723963551e-06,1.549869483339966e-06,3.639543378646466e-05,3.5575087604521165e-07,Unknown
0.21911538500000027,1.751293638333886e-06,2.2226483154998512e-06,2.086258564425595e-06,1.547160573575303e-06,3.650469427787619e-05,3.5532449825982364e-07,Unknown
0.21963461500000037,1.7494673803912333e-06,2.2164938774554128e-06,2.089604296690972e-06,1.5472440232271578e-06,3.658136111780292e-05,3.551913333520932e-07,Unknown
0.22015384600000054,1.7504433829169712e-06,2.212829220927845e-06,2.09573786328167e-06,1.5442840822842588e-06,3.661667787583997e-05,3.553716330661095e-07,Unknown
0.22067307699999983,1.7477216796641176e-06,2.2065616315527525e-06,2.105541003104044e-06,1.5322949432583911e-06,3.66244111357311e-05,3.5566932545378e-07,Unknown
0.221192308,1.7335507907146337e-06,2.191932434934371e-06,2.1161128689136725e-06,1.5213489692539532e-06,3.662250052706017e-05,3.560361988515478e-07,Unknown
0.2217115380000001,1.710672168044492e-06,2.1688548711992763e-06,2.1190710789557167e-06,1.5206949903995365e-06,3.661966777719969e-05,3.56722975576626e-07,Unknown
0.22223076900000027,1.6937687164749962e-06,2.147383941788853e-06,2.1105887901162e-06,1.521594796119945e-06,3.662175001715313e-05,3.5767631565284655e-07,Unknown
0.22275000000000045,1.688289967023229e-06,2.1354576389942617e-06,2.0925485585839467e-06,1.5208703069191887e-06,3.664128126686026e-05,3.586370204720541e-07,Unknown
0.22326923100000062,1.6880605452372087e-06,2.131382856441112e-06,2.06519364780547e-06,1.520601602184738e-06,3.670090026580174e-05,3.59377786109987e-07,Unknown
0.2237884619999999,1.685194570756576e-06,2.1305139429023643e-06,2.02773562940638e-06,1.5127316014719957e-06,3.682316056835992e-05,3.599447045426544e-07,Unknown
0.224307692,1.677676923754182e-06,2.1305737071818724e-06,1.9838026610935258e-06,1.4998257803577587e-06,3.701939517252526e-05,3.608481010799586e-07,Unknown
0.22482692300000018,1.6711270653189875e-06,2.1336735517068747e-06,1.9395603210912657e-06,1.4952594290556748e-06,3.730061191847897e-05,3.62245601544911e-07,Unknown
0.22534615400000035,1.667671752990455e-06,2.140939962696486e-06,1.899752911620141e-06,1.5010843539034852e-06,3.76953530375363e-05,3.633551756166717e-07,Unknown
0.22586538500000053,1.6622857359762522e-06,2.147608602754085e-06,1.8675162349744008e-06,1.5127681099980303e-06,3.8253000514825766e-05,3.631396437770775e-07,Unknown
0.22638461500000062,1.6443428256503012e-06,2.148470526792468e-06,1.8416900151596267e-06,1.523929006095217e-06,3.9026157560633406e-05,3.618415709541057e-07,Unknown
0.2269038459999999,1.6165114589647783e-06,2.1427349932418195e-06,1.823472537390897e-06,1.5274678538947043e-06,4.0030940680184485e-05,3.612487083684658e-07,Unknown
0.22742307700000008,1.6015048906003433e-06,2.135798271090079e-06,1.814998518799496e-06,1.5252192060903596e-06,4.1234951880450586e-05,3.6267844367627516e-07,Unknown
0.22794230800000026,1.606144342780782e-06,2.136948521207159e-06,1.8125070287834704e-06,1.522733941542223e-06,4.2607517224473694e-05,3.659966920033844e-07,Unknown
0.22846153800000035,1.6177450231872287e-06,2.1521460470316917e-06,1.8130579316197e-06,1.522088891900461e-06,4.416487636318916e-05,3.707912034906392e-07,Unknown
0.22898076900000053,1.6284993709786718e-06,2.179946680177612e-06,1.8143387195300684e-06,1.5230195917039586e-06,4.595887548437044e-05,3.7706731685541363e-07,Unknown
0.22949999999999982,1.639003630161648e-06,2.213614894114148e-06,1.81731070978818e-06,1.5240393111284042e-06,4.803544072067802e-05,3.847842467462298e-07,Unknown
0.230019231,1.6533190389660755e-06,2.2470761701927794e-06,1.8232478558564808e-06,1.5251386733418771e-06,5.040565521827058e-05,3.934324761001864e-07,Unknown
0.23053846200000017,1.6702414320650448e-06,2.2779266142476072e-06,1.824096154129052e-06,1.5266957696593738e-06,5.3061196265253065e-05,4.022922895079009e-07,Unknown
0.23105769200000026,1.6817427172077312e-06,2.303827437589466e-06,1.815330825903491e-06,1.5295702580235147e-06,5.599825721109133e-05,4.108959935290706e-07,Unknown
0.23157692300000043,1.6865733441511612e-06,2.32275585395494e-06,1.805066597676595e-06,1.5339867131311436e-06,5.9199054551911145e-05,4.1883227144567393e-07,Unknown
0.2320961540000006,1.6889290715412076e-06,2.3379003335492144e-06,1.8092574163682595e-06,1.5356374150471171e-06,6.261461748716923e-05,4.253485951449358e-07,Unknown
0.2326153849999999,1.6911845105907036e-06,2.353864836243846e-06,1.8483960423409172e-06,1.534135610431539e-06,6.619594394579967e-05,4.2999122156954933e-07,Unknown
0.233134615,1.7002263370909402e-06,2.373968967104078e-06,1.926277946986442e-06,1.533062044041036e-06,6.992907774195834e-05,4.335739625307404e-07,Unknown
0.23365384600000016,1.716137107983541e-06,2.4025638307291628e-06,2.0207752412058875e-06,1.5340968703566484e-06,7.381654903452539e-05,4.380182401541986e-07,Unknown
0.23417307700000034,1.7227453523896589e-06,2.4357206040912877e-06,2.1091053096888647e-06,1.535179739753992e-06,7.781936206856786e-05,4.454883668988217e-07,Unknown
0.23469230800000052,1.7126488380477649e-06,2.459787948017865e-06,2.183028315595752e-06,1.5355457317146615e-06,8.182925853968079e-05,4.566629173796506e-07,Unknown
0.2352115380000006,1.6981620841510088e-06,2.471137048290336e-06,2.244543861829346e-06,1.54239006451613e-06,8.571185281078067e-05,4.695202913798327e-07,Unknown
0.2357307689999999,1.689165465279298e-06,2.47708001912277e-06,2.299922707958461e-06,1.548554010756938e-06,8.937684593400467e-05,4.813326836901205e-07,Unknown
0.23625000000000007,1.6844858454650513e-06,2.483818887560208e-06,2.3544201377635705e-06,1.5364028810734657e-06,9.280135310511144e-05,4.91012737667658e-07,Unknown
0.23676923100000025,1.6801913403180284e-06,2.49403039894759e-06,2.4071969391714374e-06,1.5148191472215194e-06,9.59901093586542e-05,4.989026177119736e-07,Unknown
0.23728846200000042,1.673395437730855e-06,2.503970991310026e-06,2.452882502053743e-06,1.503599488937336e-06,9.892102484703269e-05,5.056943202990362e-07,Unknown
0.23780769200000051,1.6612130429741677e-06,2.5097665296117942e-06,2.4876707963270867e-06,1.5007151415753269e-06,0.0001015341720984,5.119796358915985e-07,Unknown
0.2383269230000007,1.6419066009964075e-06,2.5129698734299685e-06,2.511210022449065e-06,1.4987090089830603e-06,0.000103775387149,5.18165158894427e-07,Unknown
0.23884615399999998,1.620272715847281e-06,2.516328137612923e-06,2.531967596924557e-06,1.4985860852198764e-06,0.000105640729717,5.243538687885433e-07,Unknown
0.23936538500000015,1.6044194355819035e-06,2.519946204099658e-06,2.561506023972298e-06,1.498918295236322e-06,0.0001071673443598,5.302880485732707e-07,Unknown
0.23988461500000025,1.5975266792139909e-06,2.518246317051855e-06,2.596020875128658e-06,1.496730555812337e-06,0.0001083835926823,5.355762955261114e-07,Unknown
0.24040384600000042,1.5957977304891942e-06,2.5090129145192885e-06,2.6235477067440435e-06,1.491415455316907e-06,0.0001092796200761,5.400068839799393e-07,Unknown
0.2409230770000006,1.5936321263890955e-06,2.4994171809584697e-06,2.636794917112825e-06,1.4857697052507507e-06,0.0001098404372911,5.436017661365721e-07,Unknown
0.24144230799999988,1.5893525843003258e-06,2.493161998891585e-06,2.637849722443884e-06,1.4844449679678218e-06,0.0001101030421876,5.464410701330528e-07,Unknown
0.24196153799999998,1.58640097700047e-06,2.483742276525892e-06,2.6374228261294143e-06,1.4839260127880134e-06,0.0001101650338599,5.485514895526482e-07,Unknown
0.24248076900000015,1.5912245911273917e-06,2.466120974616504e-06,2.639055780561292e-06,1.4789405608452276e-06,0.0001101637827982,5.49979899958553e-07,Unknown
0.24300000000000033,1.6068659468085844e-06,2.4488482978660115e-06,2.639742237794295e-06,1.4728363985887106e-06,0.0001102916807161,5.508450583221543e-07,Unknown
0.2435192310000005,1.6286882165334188e-06,2.447190242244809e-06,2.63708055177674e-06,1.4700609967475937e-06,0.0001107950218531,5.513068383612076e-07,Unknown
0.24403846200000068,1.6491719498728457e-06,2.460289332702221e-06,2.631995114354848e-06,1.470319080280256e-06,0.0001118303719291,5.51502413852855e-07,Unknown
0.24455769199999988,1.6652265276452057e-06,2.472422829657476e-06,2.6310721157020843e-06,1.471379614599354e-06,0.0001133090357791,5.515242198363404e-07,Unknown
0.24507692300000006,1.679668990912594e-06,2.485481056927811e-06,2.635347823605974e-06,1.472303965969399e-06,0.0001150344393426,5.515667559037698e-07,Unknown
0.24559615400000023,1.698831065025729e-06,2.519971638612601e-06,2.639987411553796e-06,1.4737084401424943e-06,0.0001169390574557,5.52003552628097e-07,Unknown
0.2461153850000004,1.7293824739926838e-06,2.578839751513696e-06,2.6428688718160404e-06,1.4772228602459813e-06,0.0001190033125647,5.533595718969146e-07,Unknown
0.2466346150000005,1.7699080239083037e-06,2.6455349391679693e-06,2.645000431291708e-06,1.4832762060333292e-06,0.0001210116590781,5.564014788225548e-07,Unknown
0.24715384600000068,1.8072379873387404e-06,2.709515954637665e-06,2.649593060231598e-06,1.488721670922242e-06,0.0001227419779018,5.621647181964904e-07,Unknown
0.24767307699999996,1.8319664521928244e-06,2.765922092610754e-06,2.6605039021335578e-06,1.4914970024259057e-06,0.0001245351729468,5.713423676848784e-07,Unknown
0.24819230800000014,1.8483160013450688e-06,2.8168702926148298e-06,2.677445070124393e-06,1.493065572317806e-06,0.0001276434558998,5.837065643748053e-07,Unknown
0.24871153800000023,1.8654339154461296e-06,2.877884581286418e-06,2.69540251792282e-06,1.4960511543716673e-06,0.0001340471710532,5.990056409274709e-07,Unknown
0.2492307690000004,1.8907404932844485e-06,2.951062710471397e-06,2.713263048797986e-06,1.5029860533172032e-06,0.0001438473626267,6.1831753426889e-07,Unknown
0.24975000000000058,1.9296213929487174e-06,3.015886924708056e-06,2.732309659076095e-06,1.5109684678997458e-06,0.0001532839009609,6.437947874372231e-07,Unknown
0.25026923099999987,1.984299214281399e-06,3.058931736027315e-06,2.752604445492368e-06,1.5145022967281092e-06,0.0001589191545429,6.768977326455794e-07,Sat
0.25078846200000005,2.0488470273401187e-06,3.088592857126665e-06,2.7775703192624234e-06,1.514831804951416e-06,0.0001610901252268,7.167505643242112e-07,Sat
0.25130769200000014,2.111817465554002e-06,3.1277628722407818e-06,2.811901593582725e-06,1.5142500262889e-06,0.0001617224768196,7.608515912450987e-07,Sat
0.2518269230000003,2.164597567630287e-06,3.197702713713542e-06,2.8544655648510957e-06,1.5133014200428697e-06,0.0001619192738877,8.079207880725416e-07,Sat
0.2523461540000005,2.204668178383276e-06,3.300761119181821e-06,2.897336304579189e-06,1.5136656338857046e-06,0.0001620044631881,8.59086902913392e-07,Sat
0.25286538500000066,2.234008600988235e-06,3.4145025251531718e-06,2.935118287610345e-06,1.514337650462679e-06,0.0001620932137354,9.160549687996116e-07,Sat
0.25338461499999987,2.255886124304608e-06,3.5150337054323358e-06,2.9729931850539085e-06,1.5138588712596857e-06,0.0001623747081659,9.789157084238058e-07,Sat
0.25390384600000004,2.2739001763395257e-06,3.6013171159568182e-06,3.023030518991648e-06,1.5134583733511126e-06,0.0001631109448168,1.046192471996891e-06,Sat
0.2544230770000002,2.2920690703913422e-06,3.689498645534919e-06,3.100613841491624e-06,1.5140692338094172e-06,0.0001638858281468,1.116503649602799e-06,Sat
0.2549423080000004,2.3125769115171258e-06,3.7962117889450823e-06,3.216675186948157e-06,1.5159492002303173e-06,0.0001639901590219,1.1894669873875464e-06,Sat
0.2554615380000005,2.332751008378579e-06,3.925989544400365e-06,3.363202625121433e-06,1.5188531078664584e-06,0.0001642611087811,1.265225097522673e-06,Sat
0.25598076900000066,2.3468499741698106e-06,4.07373697274773e-06,3.5170370387277888e-06,1.5211430299510277e-06,0.0001652290390977,1.3432778082867743e-06,Sat
0.25649999999999995,2.3519851230404645e-06,4.233808330351472e-06,3.657871485176465e-06,1.5221063915493949e-06,0.0001656215711112,1.4214905048782583e-06,Sat
0.2570192310000001,2.351561823780368e-06,4.398589079455514e-06,3.7769898775292495e-06,1.5224264454751706e-06,0.0001657280155796,1.4964128279615751e-06,Sat
0.2575384620000003,2.3531477155590184e-06,4.555497151335264e-06,3.874263366015938e-06,1.5225975067315446e-06,0.0001670445756942,1.5649604394213671e-06,Sat
0.2580576920000004,2.3601236233198107e-06,4.694871762692786e-06,3.950880889822693e-06,1.5224381061966205e-06,0.0001682838547468,1.6256556600485151e-06,Sat
0.25857692300000057,2.3685986262140507e-06,4.820105381861431e-06,4.004428839977359e-06,1.5212318123701283e-06,0.0001683872329574,1.6780878524235282e-06,Sat
0.25909615399999986,2.3754926928022144e-06,4.946048092487619e-06,4.031276670661223e-06,1.5188490879509226e-06,0.0001684267246678,1.7217916170028866e-06,Sat
0.25961538500000003,2.381729633140888e-06,5.086165363696972e-06,4.03558651575756e-06,1.5166155560846104e-06,0.0001758941632305,1.75614498913502e-06,Sat
0.2601346150000001,2.387107440210572e-06,5.235157125273613e-06,4.03255516624924e-06,1.5158791662116526e-06,0.0002348517256362,1.7809252132830982e-06,Sat
0.2606538460000003,2.388615475833594e-06,5.366086086634194e-06,4.035756217339574e-06,1.5159898025086268e-06,0.0003597382853876,1.7966358802177777e-06,Sat
0.2611730770000005,2.386527253335005e-06,5.457697142302732e-06,4.047078123341216e-06,1.5155992868909778e-06,0.0004887085298546,1.8047087352203428e-06,Sat
0.26169230800000065,2.3856682861646507e-06,5.515229553167259e-06,4.064028259883196e-06,1.5148217576380495e-06,0.0005729709026907,1.807536825912681e-06,Sat
0.26221153799999986,2.3867029666388843e-06,5.5557763612130994e-06,4.085424139945582e-06,1.514432393827663e-06,0.0006108108437738,1.8078396600071923e-06,Sat
0.26273076900000003,2.387151858627013e-06,5.5894804135480375e-06,4.107442049658328e-06,1.5144600360567344e-06,0.0006240729578925,1.807908476579448e-06,Sat
0.2632500000000002,2.386926918138725e-06,5.616329103327034e-06,4.123455913331478e-06,1.5140149455038926e-06,0.0006288176005845,1.8097632989153456e-06,Sat
0.2637692310000004,2.387418897099162e-06,5.632919005154246e-06,4.13149918840396e-06,1.5134364030550233e-06,0.0006305672690374,1.815847610014752e-06,Sat
0.26428846200000056,2.3912495744298863e-06,5.63994449791412e-06,4.136383025093097e-06,1.5138217522223745e-06,0.0006307585027786,1.8291773094435083e-06,Sat
0.26480769200000065,2.40006016234971e-06,5.640598580215668e-06,4.143923935845181e-06,1.514795572269386e-06,0.0006311538034312,1.8524395514544192e-06,Sat
0.26532692299999994,2.4161850895347678e-06,5.636806956617602e-06,4.156053745451326e-06,1.5156244856618234e-06,0.0006338739082496,1.886736897748929e-06,Sat
0.2658461540000001,2.444632899675696e-06,5.633727630974682e-06,4.168588616904561e-06,1.5151504814687234e-06,0.000639826752748,1.9314052028582374e-06,Sat
0.2663653850000003,2.4895844021494e-06,5.647340827976083e-06,4.177842568057124e-06,1.5143000105027211e-06,0.0006491416282728,1.984955485550627e-06,Sat
0.2668846150000004,2.5567171690473e-06,5.699056854565868e-06,4.185037610848304e-06,1.515306010922602e-06,0.0006621546562582,2.0459334190029743e-06,Sat
0.26740384600000056,2.6542864500515016e-06,5.801576088473145e-06,4.192106735029356e-06,1.5195065138479192e-06,0.0006792361146178,2.1132715232126628e-06,Sat
0.26792307699999984,2.7827736099490383e-06,5.956446808602328e-06,4.198530498399304e-06,1.5309985692411467e-06,0.0007002115880742,2.1864013386182357e-06,Sat
0.268442308,2.932502459583879e-06,6.165600040870682e-06,4.20312782602085e-06,1.5513145732739475e-06,0.0007244471225678,2.265226786414049e-06,Sat
0.2689615380000001,3.0929021433723374e-06,6.445196469349872e-06,4.208209121177085e-06,1.5737629828596906e-06,0.0007513899102379,2.3496241873940945e-06,Sat
0.2694807690000003,3.255418394289559e-06,6.8185024837141104e-06,4.2181388339602e-06,1.590723486239074e-06,0.0007806800310857,2.4379759838565862e-06,Sat
0.27000000000000046,3.417412074936942e-06,7.292601000191991e-06,4.230171692706927e-06,1.6009112295057354e-06,0.0008117373539526,2.525574437653565e-06,Sat
0.27051923100000064,3.5840756303280474e-06,7.850824382570993e-06,4.231098082588709e-06,1.607815748585167e-06,0.0008436486561147,2.6054209312695546e-06,Sat
0.2710384619999999,3.761165224853541e-06,8.462168511388245e-06,4.247887094699132e-06,1.6148406942073842e-06,0.000875875376344,2.671947235680127e-06,Sat
0.271557692,3.949638764316431e-06,9.093115138622636e-06,4.343100714638673e-06,1.62503845539148e-06,0.0009088659671933,2.7237956306592946e-06,Sat
0.2720769230000002,4.138771344224294e-06,9.715544306877044e-06,4.497397582842397e-06,1.637237539044631e-06,0.0009431317374103,2.762642515059961e-06,Sat
0.27259615400000037,4.309042492376955e-06,1.0309544018191414e-05,4.629369210818527e-06,1.6453645520259911e-06,0.0009772391481087,2.7901991622939087e-06,Sat
0.27311538500000054,4.447151520742368e-06,1.0864068856816815e-05,4.712692338898442e-06,1.6483127133150965e-06,0.0010081297527927,2.80704600757039e-06,Sat
0.27363461500000064,4.551811740645835e-06,1.1377475406190271e-05,4.774224924221673e-06,1.649623758667978e-06,0.0010354164775293,2.814362183620905e-06,Sat
0.2741538459999999,4.629088732775536e-06,1.1854364211648793e-05,4.845413080316631e-06,1.6516869614368691e-06,0.0010638756298859,2.8158203885883568e-06,Sat
0.2746730770000001,4.685581034677138e-06,1.2295513770851458e-05,4.943502672998855e-06,1.6540392637138287e-06,0.0010985624121724,2.815812015695378e-06,Sat
0.2751923080000003,4.72662704335937e-06,1.2687992341032616e-05,5.055420354692558e-06,1.6491165880467965e-06,0.0011318965199948,2.816110371430377e-06,Sat
0.27571153800000037,4.75663781409209e-06,1.3010316252373924e-05,5.148505003994689e-06,1.6329346657551978e-06,0.0011445316089161,2.8163123628701377e-06,Sat
0.27623076900000054,4.777575622524331e-06,1.325156362322193e-05,5.208184678053564e-06,1.6203494331228291e-06,0.0011452550450687,2.816291198094612e-06,Sat
0.27674999999999983,4.789549029647752e-06,1.3420757912472964e-05,5.243974391642863e-06,1.621598148034001e-06,0.0011760511363145,2.8164704747809825e-06,Sat
0.277269231,4.793544862527347e-06,1.3536661047298693e-05,5.268073821156738e-06,1.6232430165518356e-06,0.0012436662379331,2.817243067320491e-06,Sat
0.2777884620000002,4.793705148406868e-06,1.361454704408578e-05,5.284591619015581e-06,1.621356959597475e-06,0.0013155448034755,2.8192947534290258e-06,Sat
0.2783076920000003,4.794121771481425e-06,1.36633104183266e-05,5.29096672737508e-06,1.6288508287900722e-06,0.0013738327687906,2.8239709373496314e-06,Sat
0.27882692300000045,4.794457416991779e-06,1.3689403589149368e-05,5.2893116363175024e-06,1.6386539847278506e-06,0.0014200356719488,2.8323732478543067e-06,Sat
0.2793461540000006,4.793664684668815e-06,1.3699827962224206e-05,5.307537551146022e-06,1.6324968525480911e-06,0.0014573651405405,2.843716099866044e-06,Sat
0.2798653849999999,4.79432669528129e-06,1.3701921260411978e-05,5.397089838501651e-06,1.6160621088816949e-06,0.0014858695599269,2.8557322020846336e-06,Sat
0.280384615,4.80085335017004e-06,1.3701805499880492e-05,5.589920001832055e-06,1.6061629599363729e-06,0.0015057734897994,2.866698978514151e-06,Sat
0.2809038460000002,4.816923748417552e-06,1.37041560363547e-05,5.876291524294446e-06,1.6038581212934338e-06,0.0015188080029558,2.875929267734644e-06,Sat
0.28142307700000035,4.8442645801948135e-06,1.371396505890754e-05,6.2222591265501935e-06,1.6038158616347314e-06,0.0015268106236505,2.882955538076182e-06,Sat
0.28194230800000053,4.882238439193471e-06,1.3737431284208624e-05,6.584554009884973e-06,1.606144882651129e-06,0.001531124385461,2.88744620469317e-06,Sat
0.2824615380000006,4.929697572322639e-06,1.377883440681603e-05,6.932443410060305e-06,1.609790458791842e-06,0.0015329889562273,2.889734200772833e-06,Sat
0.2829807689999999,4.983741175593367e-06,1.3837153979328216e-05,7.263255664994164e-06,1.6113328400145288e-06,0.0015335733997488,2.8906290298002425e-06,Sat
0.2835000000000001,5.038330732339341e-06,1.3910021981767742e-05,7.585769525897499e-06,1.609287689713833e-06,0.0015336708151121,2.8908092667640337e-06,Sat
0.28401923100000026,5.090987855598469e-06,1.400057864565813e-05,7.89718652921221e-06,1.607635213741772e-06,0.0015336706889538,2.890744269169078e-06,Sat
0.28453846200000044,5.146880139868163e-06,1.4116216728817096e-05,8.176426842563332e-06,1.6082956629739766e-06,0.0015337489083558,2.89095624925354e-06,Sat
0.28505769200000053,5.212228228105957e-06,1.4259017100472546e-05,8.401938302846451e-06,1.6078573741072238e-06,0.0015340015160068,2.8920345882737823e-06,Sat
0.2855769229999998,5.284396411787498e-06,1.4418601488929004e-05,8.574315727210321e-06,1.6074385531215798e-06,0.0015344858823979,2.894483346995598e-06,Sat
0.286096154,5.35471618892052e-06,1.458126638917866e-05,8.710825293569266e-06,1.6077351868774514e-06,0.0015352361413196,2.8987776008400125e-06,Sat
0.28661538500000017,5.421115759237555e-06,1.4746010853821443e-05,8.826595241603711e-06,1.6076405685899026e-06,0.0015362752157103,2.9054274859283085e-06,Sat
0.28713461500000026,5.488879534734606e-06,1.4923533995527314e-05,8.925315800737979e-06,1.6084890174163946e-06,0.0015376136801836,2.9146700504226447e-06,Sat
0.28765384600000043,5.56002461626833e-06,1.5121730511346304e-05,8.999872124124444e-06,1.610823476385834e-06,0.0015392467218719,2.9260782248955747e-06,Sat
0.2881730770000006,5.627751518640574e-06,1.5336665598059474e-05,9.044731458652029e-06,1.6121891590992928e-06,0.0015411713264082,2.9387930567463643e-06,Sat
0.2886923079999999,5.68365814984121e-06,1.555645095623057e-05,9.065712076222187e-06,1.6092710302798677e-06,0.0015434147429631,2.952242149709885e-06,Sat
0.289211538,5.726837520950965e-06,1.5770961937471826e-05,9.073982063198548e-06,1.60471956704844e-06,0.0015460360458185,2.9665076261725616e-06,Sat
0.28973076900000017,5.762349255836423e-06,1.5975622556902902e-05,9.07708812442445e-06,1.6021715347976744e-06,0.0015490825260602,2.9820412729689627e-06,Sat
0.29025000000000034,5.7942754123801415e-06,1.6167918472732294e-05,9.07781321460672e-06,1.6002453466715806e-06,0.0015525394175557,2.9991726815338306e-06,Sat
0.2907692310000005,5.822092457710169e-06,1.6345983928573898e-05,9.077234871765211e-06,1.596579891386042e-06,0.0015563423059932,3.0178610120359773e-06,Sat
0.2912884620000007,5.843089605733991e-06,1.6511336773758252e-05,9.077929924807984e-06,1.5911834412285402e-06,0.0015604532812579,3.0375944881495647e-06,Sat
0.2918076919999999,5.857632648547348e-06,1.6668034457470735e-05,9.084172457166326e-06,1.588167337455226e-06,0.0015648881719665,3.0574541177282767e-06,Sat
0.29232692300000007,5.86967660571515e-06,1.681760280674656e-05,9.09868189865382e-06,1.5889713513592336e-06,0.0015695934172933,3.076596807013368e-06,Sat
0.29284615400000025,5.882727211097812e-06,1.6955821138464525e-05,9.120365981257895e-06,1.5918956996078128e-06,0.0015742352956036,3.094792737346893e-06,Sat
0.2933653850000004,5.896762012813527e-06,1.7074853282211808e-05,9.145116783759212e-06,1.5976434007832495e-06,0.0015781453907632,3.1123618645564462e-06,Sat
0.2938846150000005,5.909376872920048e-06,1.7169446354380697e-05,9.169670210875025e-06,1.6078973483941708e-06,0.0015806485671416,3.129618073763684e-06,Sat
0.2944038460000007,5.919508383898268e-06,1.7241456180912526e-05,9.194319246857202e-06,1.6221996346632512e-06,0.0015816320934583,3.1465210844065526e-06,Sat
0.294923077,5.927758460358176e-06,1.7297966735741146e-05,9.22112306722373e-06,1.6363688112899184e-06,0.0015817422789956,3.1628328292126303e-06,Sat
0.29544230800000015,5.934154804153625e-06,1.7345230809033074e-05,9.251002009178433e-06,1.6493452958475942e-06,0.0015817857320794,3.1784461960167537e-06,Sat
0.29596153800000025,5.937367927377127e-06,1.7384180869221172e-05,9.283684534178716e-06,1.660576185452207e-06,0.0015820331413769,3.1933976375538206e-06,Sat
0.2964807690000004,5.9376682580722e-06,1.7411872718497532e-05,9.320480679823312e-06,1.6659809915925698e-06,0.0015823534131472,3.207634083406992e-06,Sat
0.2970000000000006,5.937790434522636e-06,1.7427406133953336e-05,9.36510751820268e-06,1.6692152544451045e-06,0.0015827063692,3.2209239600787364e-06,Sat
0.2975192309999999,5.938395637638199e-06,1.7434197768111654e-05,9.420071493654177e-06,1.6725723377735518e-06,0.0015832754590501,3.232923706635851e-06,Sat
0.29803846200000006,5.938575455306218e-06,1.74364614898696e-05,9.483488756646645e-06,1.6708334915077863e-06,0.0015844017456235,3.2433018909099533e-06,Sat
0.29855769200000015,5.938593598075915e-06,1.743655219773509e-05,9.551371226164751e-06,1.6676975347555975e-06,0.0015863109746562,3.2519686267872814e-06,Sat
0.2990769230000003,5.939743724127727e-06,1.7435521124360117e-05,9.620587288653506e-06,1.6667904490077415e-06,0.0015888298462674,3.259199852480949e-06,Sat
0.2995961540000005,5.942752052728772e-06,1.7434281189958056e-05,9.688464154026108e-06,1.66496718271195e-06,0.0015916031138938,3.265382808851088e-06,Sat
0.3001153850000007,5.946330897685056e-06,1.743379673881454e-05,9.751132668675654e-06,1.6671383754828525e-06,0.0015944369429192,3.270623474795124e-06,Sat
0.3006346149999999,5.949560741504809e-06,1.7434921141287622e-05,9.80477812952585e-06,1.677610892095434e-06,0.0015972782305338,3.2747060982891293e-06,Sat
0.30115384600000006,5.953167261748517e-06,1.7438624903725383e-05,9.852354653750806e-06,1.689642301055027e-06,0.0016000348222335,3.2774811123949258e-06,Sat
0.30167307700000023,5.958522241065622e-06,1.7445801512560888e-05,9.901142043294362e-06,1.6976256110125332e-06,0.0016025414460315,3.279143079312042e-06,Sat
0.3021923080000004,5.966537210015307e-06,1.745651412065001e-05,9.954029174031526e-06,1.701648360017001e-06,0.0016046662431534,3.2800686316282528e-06,Sat
0.3027115380000005,5.976723112980936e-06,1.7470318408101243e-05,1.0008587561967069e-05,1.7023558250940195e-06,0.0016063783453,3.280567944541636e-06,Sat
0.3032307690000007,5.988805633573818e-06,1.74877377283803e-05,1.005809934881938e-05,1.6997708020705606e-06,0.0016077133159108,3.2808268304649115e-06,Sat
0.30374999999999996,6.002805963504586e-06,1.7510471559267905e-05,1.0097916458756028e-05,1.6945375605666993e-06,0.0016087175920234,3.2809492825141304e-06,Sat
0.30426923100000014,6.016493219316337e-06,1.7539155009374097e-05,1.01280486703285e-05,1.686979172286124e-06,0.0016094328453245,3.2809951523280976e-06,Sat
0.3047884620000003,6.027372280821252e-06,1.7571341685602922e-05,1.0150285870083366e-05,1.676614403161858e-06,0.0016099049369743,3.281001735596931e-06,Sat
0.3053076920000004,6.035454362064886e-06,1.7603520249662734e-05,1.0167941460873742e-05,1.665354552428695e-06,0.0016101832349833,3.281005320595337e-06,Sat
0.3058269230000006,6.042317270218501e-06,1.7635172406430796e-05,1.0182333466656993e-05,1.6588889254487937e-06,0.0016103121103859,3.2810678235768147e-06,Sat
0.30634615399999987,6.05078289422717e-06,1.7669131882029047e-05,1.0194060211403372e-05,1.6588804153179047e-06,0.0016103400303759,3.28128047477326e-06,Sat
0.30686538500000005,6.06218048986531e-06,1.7707707332568167e-05,1.0205603445065167e-05,1.657561189752674e-06,0.001610340555602,3.2817149320184e-06,Sat
0.30738461500000014,6.073950185126705e-06,1.7749061900906237e-05,1.0216591915811304e-05,1.6489774760872402e-06,0.0016103962325289,3.2824089073957587e-06,Sat
0.3079038460000003,6.084070108650112e-06,1.778886658627938e-05,1.0224177630849829e-05,1.6391006572803125e-06,0.0016105427084751,3.2834441295674075e-06,Sat
0.3084230770000005,6.093827605989533e-06,1.7825491174326363e-05,1.022900199723304e-05,1.6374000042059823e-06,0.0016107578190232,3.285000955970433e-06,Sat
0.30894230800000066,6.10522865749928e-06,1.786156762476034e-05,1.0232500121316555e-05,1.642877440326666e-06,0.0016110166834694,3.287299560354076e-06,Sat
0.30946153799999987,6.117562273950108e-06,1.7901207640549615e-05,1.0233355880113053e-05,1.6471118331190845e-06,0.0016113324057424,3.2905507695342367e-06,Sat
0.30998076900000004,6.128268537331789e-06,1.7944821109237704e-05,1.0231887418579576e-05,1.6472298565101234e-06,0.0016117462033997,3.295002004872217e-06,Sat
0.3105000000000002,6.136992494881723e-06,1.7986697833480783e-05,1.0230373172706e-05,1.6447619499710994e-06,0.0016122811654796,3.300870078266249e-06,Sat
0.3110192310000004,6.145707288755371e-06,1.8021209577196783e-05,1.0229606481134192e-05,1.6429595169915883e-06,0.0016128864476837,3.308024051339692e-06,Sat
0.31153846200000057,6.156607074982371e-06,1.804876698752087e-05,1.0229424061335702e-05,1.6447749719311095e-06,0.0016134554059119,3.3157954081830594e-06,Sat
0.31205769200000066,6.169352949351755e-06,1.807385612952261e-05,1.0229812869031692e-05,1.6412855935744774e-06,0.001613950041924,3.323409711046028e-06,Sat
0.31257692299999995,6.1806482781734086e-06,1.809980658166883e-05,1.0230812600081e-05,1.6263684683748178e-06,0.0016144787586159,3.330609966388685e-06,Sat
0.3130961540000001,6.188132092836143e-06,1.812579316150937e-05,1.0232391716336428e-05,1.6147653688223656e-06,0.0016152299254652,3.3376350837102e-06,Sat
0.3136153850000003,6.192123313552624e-06,1.814892711307641e-05,1.0234672689273016e-05,1.6173271410270428e-06,0.0016161882955068,3.3446367128638223e-06,Sat
0.3141346150000004,6.1941323168915865e-06,1.816781511355212e-05,1.0237540079261592e-05,1.6258300302364432e-06,0.001616832054931,3.351271148895903e-06,Sat
0.31465384600000057,6.195479935029406e-06,1.8182991950291624e-05,1.0240940703484246e-05,1.6307878429699358e-06,0.0016168816142481,3.3570423140295388e-06,Sat
0.31517307699999986,6.196998639914628e-06,1.819575952260606e-05,1.0244836196557786e-05,1.6306882290133449e-06,0.0016171476468792,3.3619600138112177e-06,Sat
0.31569230800000003,6.199035665395772e-06,1.820795456589281e-05,1.02488612662176e-05,1.6283326930836537e-06,0.0016181070016924,3.366539879450562e-06,Sat
0.3162115380000001,6.200937754555586e-06,1.8221607043296693e-05,1.0253330373689331e-05,1.6263517940660972e-06,0.001618898785743,3.3712429557196448e-06,Sat
0.3167307690000003,6.201829680526645e-06,1.823727265171879e-05,1.0259031600103955e-05,1.6254826063715442e-06,0.0016190473463524,3.376045048614017e-06,Sat
0.3172500000000005,6.201710492986278e-06,1.825252870972452e-05,1.026637769903136e-05,1.6255064822241092e-06,0.0016190618535245,3.3805424565547404e-06,Sat
0.31776923100000065,6.200746027195492e-06,1.826381182258243e-05,1.0275097645811662e-05,1.6256846509597529e-06,0.0016191628829112,3.38444370956316e-06,Sat
0.31828846199999994,6.199733451321026e-06,1.82705888562845e-05,1.0285334810511984e-05,1.6252950351874562e-06,0.0016191897931579,3.387702718694556e-06,Sat
0.31880769200000003,6.199621193659457e-06,1.827518674768944e-05,1.029641382341838e-05,1.623995233793046e-06,0.0016192114822367,3.390310143894385e-06,Sat
0.3193269230000002,6.19955889135192e-06,1.827965957578091e-05,1.0305153840402625e-05,1.6208124636272489e-06,0.0016194002433398,3.392288610773778e-06,Sat
0.3198461540000004,6.198884660410462e-06,1.8284062077232555e-05,1.030997215223743e-05,1.613215516251504e-06,0.0016197745638181,3.393804501983001e-06,Sat
0.32036538500000056,6.198749018049294e-06,1.828698994199091e-05,1.0312336759392892e-05,1.6024206700790554e-06,0.0016202554380165,3.3951106983754083e-06,Sat
0.32088461500000065,6.200035987294928e-06,1.8288264329397348e-05,1.0313885284601922e-05,1.5950873874256396e-06,0.0016207498624552,3.3963453892487158e-06,Sat
0.32140384599999994,6.203729144964686e-06,1.8288878950187788e-05,1.0315973808159428e-05,1.5934428397388623e-06,0.00162115950175,3.3974861143991345e-06,Sat
0.3219230770000001,6.21042913659181e-06,1.8289375351872008e-05,1.0319724236948044e-05,1.593666443977355e-06,0.0016214140027278,3.398441405656349e-06,Sat
0.3224423080000003,6.217745051590183e-06,1.8289679326988143e-05,1.0325632452200252e-05,1.593648600946995e-06,0.0016215222719967,3.3991220621579064e-06,Sat
0.3229615380000004,6.22331472510255e-06,1.8289565640703195e-05,1.0333688108073938e-05,1.593758960419386e-06,0.0016215500324948,3.399507861781752e-06,Sat
0.32348076900000056,6.227970940995151e-06,1.82893065481578e-05,1.034397868049237e-05,1.591368127997468e-06,0.0016215523572901,3.3996662803071544e-06,Sat
0.32399999999999984,6.23226451381813e-06,1.828919404949043e-05,1.0356365856020655e-05,1.586909148781208e-06,0.0016215525607086,3.399720264961381e-06,Sat
0.324519231,6.235100048020175e-06,1.828919219253572e-05,1.0368812244629913e-05,1.5852982900738763e-06,0.0016215612732802,3.3997787769898306e-06,Sat
0.3250384620000002,6.236424416711456e-06,1.8289248434578784e-05,1.03781455963518e-05,1.5854507963340274e-06,0.0016215924043024,3.399870530397877e-06,Sat
0.3255576920000003,6.237047936681624e-06,1.828946639003589e-05,1.0383003392901373e-05,1.584364438921918e-06,0.0016216625054928,3.399959375907085e-06,Sat
0.32607692300000046,6.2375209721732905e-06,1.829012033399928e-05,1.0385209764131938e-05,1.5832488752642704e-06,0.0016217763410534,3.400008722472655e-06,Sat
0.32659615400000064,6.238267812410088e-06,1.829144722710605e-05,1.038784819749648e-05,1.583163339705834e-06,0.0016219135392691,3.400016033587328e-06,Sat
0.3271153849999999,6.239715118793723e-06,1.829334457141421e-05,1.0390988919052669e-05,1.5835531334907735e-06,0.0016220325001613,3.39997928320113e-06,Sat
0.327634615,6.241564317042614e-06,1.8295604432544868e-05,1.0393173276960663e-05,1.5850759687654822e-06,0.0016220975061544,3.399866322624214e-06,Sat
0.3281538460000002,6.242916881076581e-06,1.829842557024444e-05,1.039484299592178e-05,1.5891023642111842e-06,0.00162211055527,3.3996510216884933e-06,Sat
0.32867307700000037,6.243656471373156e-06,1.8302410567033945e-05,1.0397157634930336e-05,1.5938773157944848e-06,0.0016221063376853,3.399360711048088e-06,Sat
0.32919230800000054,6.243936775015958e-06,1.8307803204217444e-05,1.04012044332207e-05,1.5964191678661357e-06,0.0016221085186497,3.399062691659443e-06,Sat
0.32971153800000064,6.243330830098296e-06,1.8313574745178085e-05,1.0405349789083062e-05,1.5976835680420188e-06,0.0016221098789012,3.3988165792536183e-06,Sat
0.3302307689999999,6.241885838358757e-06,1.8318351743732505e-05,1.0407081972260796e-05,1.5988980207885704e-06,0.0016221034016104,3.39863016294071e-06,Sat
0.3307500000000001,6.240368309479506e-06,1.8322288731646253e-05,1.0407484480278672e-05,1.6000373427420907e-06,0.001622110960951,3.3984698882969056e-06,Sat
0.3312692310000003,6.2391686503290265e-06,1.8326554281447333e-05,1.0407875232683184e-05,1.604327774188495e-06,0.0016221735960062,3.398300427888321e-06,Sat
0.33178846200000045,6.2382418119416855e-06,1.833247853738509e-05,1.040886463161863e-05,1.611841051349003e-06,0.001622326198332,3.398124992521794e-06,Sat
0.33230769200000054,6.237658245576067e-06,1.83405210251104e-05,1.0411854443860408e-05,1.6170269846391888e-06,0.0016225756791544,3.3979925604913147e-06,Sat
0.33282692299999983,6.23753274637957e-06,1.8348749291425992e-05,1.041560557402575e-05,1.6173925862233058e-06,0.0016228849562126,3.39792156338388e-06,Sat
0.333346154,6.237583544318701e-06,1.8354678169768837e-05,1.0417204576392195e-05,1.6146676446182457e-06,0.0016231851194338,3.397883102152885e-06,Sat
0.3338653850000002,6.237582919718053e-06,1.8358042983133013e-05,1.041718009847384e-05,1.612370557265026e-06,0.0016234248985407,3.397858497911965e-06,Sat
0.3343846150000003,6.237620714615516e-06,1.836041430326046e-05,1.0417509321590003e-05,1.6141833248311466e-06,0.0016236041069902,3.397843802800228e-06,Sat
0.33490384600000045,6.237379711720392e-06,1.836347487572578e-05,1.0417817050846814e-05,1.6181741775456195e-06,0.0016237545978626,3.397839247627913e-06,Sat
0.3354230770000006,6.236848338787198e-06,1.836831790766776e-05,1.0417757589347138e-05,1.619225119171379e-06,0.0016239062211092,3.3978396108922944e-06,Sat
0.3359423079999999,6.23668522702137e-06,1.837409604257503e-05,1.0417401929559878e-05,1.6158862214616604e-06,0.0016240688815562,3.3978408039648927e-06,Sat
0.336461538,6.236739898874272e-06,1.837845566712582e-05,1.0416415851727534e-05,1.610337888133108e-06,0.0016242326860005,3.3978664908435346e-06,Sat
0.3369807690000002,6.2367093460585365e-06,1.8380727330402625e-05,1.0415676306723283e-05,1.6072639650949243e-06,0.001624383291165,3.3979327581632573e-06,Sat
0.33750000000000036,6.2368898952653e-06,1.8382951472378022e-05,1.0415417289894145e-05,1.6077006508771836e-06,0.0016245153528427,3.398030026169311e-06,Sat
0.33801923100000053,6.237065329588618e-06,1.838634208082617e-05,1.0415088895208034e-05,1.6078075337639477e-06,0.0016246329278833,3.3981625253970253e-06,Sat
0.3385384619999998,6.2370703923402965e-06,1.8389741616030955e-05,1.0414729806666704e-05,1.6034689272510045e-06,0.0016247452932196,3.398358728662435e-06,Sat
0.3390576919999999,6.237657127842541e-06,1.8392669319679693e-05,1.041414100717086e-05,1.5905057335903506e-06,0.001624866303185,3.3986392949204097e-06,Sat
0.3395769230000001,6.239113291719003e-06,1.839547793571545e-05,1.0413509926250608e-05,1.5724171522286088e-06,0.0016250156084017,3.398976540827008e-06,Sat
0.34009615400000026,6.240198718981298e-06,1.8398485602659333e-05,1.0412569693515328e-05,1.561873236269413e-06,0.0016252156383059,3.399342236897604e-06,Sat
0.34061538500000044,6.24001833752204e-06,1.840237533119349e-05,1.041068744624498e-05,1.5608446234855446e-06,0.001625478446597,3.399801297018818e-06,Sat
0.34113461500000053,6.239526772933005e-06,1.840768496543258e-05,1.0408520169468016e-05,1.5602285613764052e-06,0.0016257874980229,3.400481239533128e-06,Sat
0.3416538459999998,6.239614813310512e-06,1.8414128036731936e-05,1.0406150965785512e-05,1.5581558005467798e-06,0.0016260971156325,3.401462181515511e-06,Sat
0.342173077,6.239935327957591e-06,1.8420726802429465e-05,1.0403394825713012e-05,1.5597887070318267e-06,0.0016263606648111,3.4026663339753544e-06,Sat
0.34269230800000017,6.240166888312425e-06,1.8426527631820765e-05,1.040119144453216e-05,1.568888601608363e-06,0.0016265583556132,3.403883252334916e-06,Sat
0.34321153800000026,6.240405159429361e-06,1.8431022478562933e-05,1.0399877421616312e-05,1.5789995822316337e-06,0.0016266954951825,3.4049896903565874e-06,Sat
0.34373076900000044,6.2407517937131056e-06,1.843413346788365e-05,1.039922885611324e-05,1.5821018446022705e-06,0.0016267849233494,3.4060108981281942e-06,Sat
0.3442500000000006,6.241181782321308e-06,1.843621403586883e-05,1.039965242541351e-05,1.5827766892461924e-06,0.0016268382197762,3.4069817734644955e-06,Sat
0.3447692309999999,6.24151794135634e-06,1.843789624452705e-05,1.040067774976864e-05,1.588476616107815e-06,0.0016268664209477,3.407878668425087e-06,Sat
0.3452884620000001,6.241542811957126e-06,1.843973108515442e-05,1.0400323486322168e-05,1.601094137886097e-06,0.0016268796541483,3.408666957138603e-06,Sat
0.34580769200000017,6.241272528043793e-06,1.844169615850015e-05,1.0398189334122071e-05,1.6148993139393734e-06,0.0016268847145523,3.409368318310254e-06,Sat
0.34632692300000034,6.240916089519682e-06,1.8443136580142144e-05,1.0396058104303234e-05,1.6218022891221375e-06,0.0016268855209266,3.410041832352157e-06,Sat
0.3468461540000005,6.240526408722904e-06,1.844381246517085e-05,1.0394959977647504e-05,1.6222268010052885e-06,0.0016268858826962,3.41070296045618e-06,Sat
0.3473653850000007,6.239914957044564e-06,1.844415938050084e-05,1.039510476033322e-05,1.6219710003951732e-06,0.0016268907295084,3.4112973961669186e-06,Sat
0.3478846149999999,6.238814535372198e-06,1.8444585300482155e-05,1.0396635048186465e-05,1.6235778732137408e-06,0.0016269047774998,3.4117868879418507e-06,Sat
0.3484038460000001,6.23729335690408e-06,1.8445397342829765e-05,1.039828394066486e-05,1.6257767174023357e-06,0.0016269318713699,3.412223570565055e-06,Sat
0.34892307700000025,6.2358994039752e-06,1.844657995595917e-05,1.0398311019194026e-05,1.627576366464782e-06,0.001626976321665,3.41269036849886e-06,Sat
0.3494423080000004,6.234930886121269e-06,1.8447598416653607e-05,1.039673322749902e-05,1.628636437643307e-06,0.0016270429299793,3.4131577968860973e-06,Sat
0.3499615380000005,6.23406437527845e-06,1.844772684458862e-05,1.0395039409762916e-05,1.6280026158501608e-06,0.0016271341732529,3.413417425767292e-06,Sat
0.3504807690000007,6.232621589667976e-06,1.844669134578313e-05,1.039467234604848e-05,1.623752521578976e-06,0.0016272482398423,3.413298173875848e-06,Sat
0.351,6.229701005058371e-06,1.8445382468311207e-05,1.039601051714541e-05,1.6146211779434552e-06,0.0016273811460929,3.4128463073295607e-06,Sat
0.35151923100000015,6.225049669142241e-06,1.844512938973561e-05,1.0398515621632706e-05,1.6052275852387209e-06,0.0016275306034285,3.4121927153582747e-06,Sat
0.35203846200000033,6.2196744660564525e-06,1.8445917628914623e-05,1.0400904177395543e-05,1.602163340334475e-06,0.0016276981077982,3.411451459483264e-06,Sat
0.3525576920000004,6.214563598712408e-06,1.8446560352000392e-05,1.0402946550691548e-05,1.6031148160624478e-06,0.0016278884619296,3.4107047288311176e-06,Sat
0.3530769230000006,6.20998189296703e-06,1.8446138475378712e-05,1.0405702851994747e-05,1.603695160152033e-06,0.001628107061909,3.4099798533090637e-06,Sat
0.3535961539999999,6.206043584800353e-06,1.8444498293350045e-05,1.0408487375074412e-05,1.603885827309371e-06,0.001628355352135,3.4092616596614527e-06,Sat
0.35411538500000006,6.20274247288973e-06,1.8442372417861653e-05,1.041025308182304e-05,1.6029390210989158e-06,0.0016286254650277,3.408514346089912e-06,Sat
0.35463461500000015,6.199569795532263e-06,1.8440951928485717e-05,1.0411127130537643e-05,1.6021224846098655e-06,0.0016288980431831,3.407715461810985e-06,Sat
0.35515384600000033,6.195663079471548e-06,1.8440505404624916e-05,1.0411430279639136e-05,1.6020739683925611e-06,0.0016291490585278,3.406876257126711e-06,Sat
0.3556730770000005,6.191196826004887e-06,1.8440224231299584e-05,1.0411797235113657e-05,1.6006193963658018e-06,0.0016293628692102,3.405991196595687e-06,Sat
0.3561923080000007,6.188054962687602e-06,1.8439727330180083e-05,1.0412314140186137e-05,1.5972630655216365e-06,0.0016295387456426,3.4050457830260244e-06,Sat
0.3567115379999999,6.18704289637708e-06,1.843970348724485e-05,1.0412365574311364e-05,1.5924804938269594e-06,0.0016296851425258,3.4041032794260947e-06,Sat
0.35723076900000006,6.186798383638218e-06,1.844063466983406e-05,1.0410483044987803e-05,1.5890871594112725e-06,0.0016298093254708,3.403278375068956e-06,Sat
0.35775000000000023,6.185370267469837e-06,1.8441548641665344e-05,1.040346013641252e-05,1.587929962281206e-06,0.0016299116319029,3.402626349041481e-06,Sat
0.3582692310000004,6.181804974432848e-06,1.8440947058107046e-05,1.0389652479120714e-05,1.5876489795039572e-06,0.001629987624084,3.402056163898296e-06,Sat
0.3587884620000006,6.177584460854505e-06,1.8438073950716253e-05,1.0371907228870366e-05,1.5872140127796956e-06,0.0016300342410802,3.401359186914117e-06,Sat
0.3593076920000007,6.174841517523181e-06,1.8433996477856608e-05,1.0354371484497172e-05,1.5874696243118953e-06,0.001630053508909,3.4003099236488408e-06,Sat
0.35982692299999997,6.174127832583669e-06,1.843138296038225e-05,1.0339127089014184e-05,1.588465329949188e-06,0.0016300512767679,3.3988188589545917e-06,Sat
0.36034615400000014,6.174381831251182e-06,1.8431307399151744e-05,1.0326088910022828e-05,1.5820941696410858e-06,0.001630033028423,3.3970785953595384e-06,Sat
0.3608653850000003,6.174490156797667e-06,1.843237705452781e-05,1.0313945524395256e-05,1.571024830482243e-06,0.0016300011980437,3.3954153225079936e-06,Sat
0.3613846150000004,6.174525746539596e-06,1.843307344695065e-05,1.0301617844923467e-05,1.5708896017586831e-06,0.0016299566482207,3.3940110258294724e-06,Sat
0.3619038460000006,6.174945865401996e-06,1.8432951649875817e-05,1.028939015135612e-05,1.5792439309454336e-06,0.0016299017744426,3.392865259507831e-06,Sat
0.36242307699999987,6.175557159140635e-06,1.8433020677228485e-05,1.0278607816063569e-05,1.5822923796281466e-06,0.0016298412336313,3.3919027551335902e-06,Sat
0.36294230800000005,6.176148069179067e-06,1.8434639517000415e-05,1.027003035798078e-05,1.580428001139233e-06,0.0016297797864259,3.3910372267292204e-06,Sat
0.36346153800000014,6.177040652517516e-06,1.8437516765345223e-05,1.0262857547370014e-05,1.5802223995660151e-06,0.00162971986457,3.390198351492809e-06,Sat
0.3639807690000003,6.177942051069907e-06,1.8440045948944963e-05,1.025578927799642e-05,1.5843944645197374e-06,0.0016296615471807,3.3893561597433222e-06,Sat
0.3645000000000005,6.1782177036422246e-06,1.844095853641408e-05,1.0248522097894509e-05,1.5929287845566358e-06,0.0016296047252541,3.388526175683245e-06,Sat
0.36501923100000067,6.177898796092324e-06,1.8440749142357736e-05,1.0241793425989917e-05,1.5985290793738477e-06,0.001629551276719,3.387741591777939e-06,Sat
0.36553846199999995,6.178178133364125e-06,1.844092496912186e-05,1.0235958064281258e-05,1.5983858298221865e-06,0.0016295057038155,3.3870263657710644e-06,Sat
0.36605769200000005,6.181265768244292e-06,1.844181478943633e-05,1.0231245265273908e-05,1.6014758293341229e-06,0.0016294732129735,3.386406285296903e-06,Sat
0.3665769230000002,6.186331835427667e-06,1.844319902145555e-05,1.0228232106478015e-05,1.6081425719161037e-06,0.0016294561286331,3.3859122668328205e-06,Sat
0.3670961540000004,6.188649056960636e-06,1.8445215574456768e-05,1.0226576764280084e-05,1.6108578103981404e-06,0.0016294522423725,3.3855456229608857e-06,Sat
0.36761538500000057,6.18656659488845e-06,1.844718727952332e-05,1.0225605299711723e-05,1.610778156908209e-06,0.0016294559648818,3.38529498973992e-06,Sat
0.36813461500000066,6.182023437531027e-06,1.844804371810921e-05,1.022516120181322e-05,1.6120667784226705e-06,0.0016294585866932,3.385159877688479e-06,Sat
0.36865384599999995,6.176377046746242e-06,1.8447516205318817e-05,1.0225087031701154e-05,1.6138949206994132e-06,0.0016294476154289,3.3851193922221e-06,Sat
0.3691730770000001,6.170924630978014e-06,1.8445761787575296e-05,1.0225041954968884e-05,1.6145340256868976e-06,0.0016294119205458,3.3851557385666747e-06,Sat
0.3696923080000003,6.166569091143783e-06,1.844284834096208e-05,1.0224503741213563e-05,1.6145865154439224e-06,0.0016293518822007,3.3852825457945687e-06,Sat
0.3702115380000004,6.162734713732457e-06,1.843870784911963e-05,1.0223454461747975e-05,1.6147736631846249e-06,0.0016292787330383,3.3855149958147727e-06,Sat
0.37073076900000057,6.15776171896004e-06,1.843283725657212e-05,1.0222716796349526e-05,1.6143066436495235e-06,0.0016292016608227,3.385786740990063e-06,Sat
0.37124999999999986,6.149575549638847e-06,1.8424671334761225e-05,1.0222637879465556e-05,1.6109478463549106e-06,0.0016291202806435,3.3858790260762317e-06,Sat
0.37176923100000003,6.138114915922833e-06,1.8415088207984783e-05,1.0222385992702703e-05,1.6040522459449916e-06,0.0016290281492169,3.385516367802613e-06,Sat
0.3722884620000002,6.127179015029368e-06,1.8405887478395342e-05,1.022109312626068e-05,1.59764258723508e-06,0.0016289233011624,3.384536821701244e-06,Sat
0.3728076920000003,6.119899878145402e-06,1.8397532624569104e-05,1.02179661891502e-05,1.5945635352356049e-06,0.0016287921825799,3.3829399536197404e-06,Sat
0.3733269230000005,6.115122243434625e-06,1.838883688178053e-05,1.02127446007779e-05,1.592510776412645e-06,0.0016285529049733,3.3808157991803254e-06,Sat
0.37384615400000065,6.110020677811027e-06,1.8378502664082087e-05,1.020691120624462e-05,1.5879651017945891e-06,0.0016280418031972,3.378165314399045e-06,Sat
0.37436538499999994,6.102077833246951e-06,1.8367181384150903e-05,1.020166189764442e-05,1.579401765350227e-06,0.0016272085223863,3.37471735109374e-06,Sat
0.37488461500000003,6.089753714547381e-06,1.835735306335168e-05,1.0196794118387183e-05,1.5707598614704085e-06,0.0016263452115799,3.369966675672713e-06,Sat
0.3754038460000002,6.072554151250726e-06,1.8350295971648617e-05,1.0191742682970476e-05,1.5671069738307409e-06,0.0016258034251825,3.3634929520761126e-06,Sat
0.3759230770000004,6.051396471609397e-06,1.834473977984792e-05,1.0185786034136808e-05,1.5667391594666203e-06,0.0016255896194704,3.35531769362392e-06,Sat
0.37644230800000056,6.029521038913863e-06,1.833780944986371e-05,1.0178439314440184e-05,1.56695328906568e-06,0.0016255257310024,3.34579006223763e-06,Sat
0.37696153800000065,6.010845216707957e-06,1.83259794450204e-05,1.0169281953367514e-05,1.5672962533921994e-06,0.0016255137652578,3.335010171523554e-06,Sat
0.37748076899999994,5.997299955401772e-06,1.8308444731735672e-05,1.0158558669822636e-05,1.5682279534965129e-06,0.0016255268618041,3.322511382503786e-06,Sat
0.3780000000000001,5.987746615429529e-06,1.828901380108228e-05,1.014767520716922e-05,1.5707986496558914e-06,0.0016255480678155,3.307577125918701e-06,Sat
0.3785192310000003,5.97992071218828e-06,1.8270929205263067e-05,1.013650719663389e-05,1.5728697133999469e-06,0.0016255528988272,3.289802465099114e-06,Sat
0.37903846200000046,5.973030708338983e-06,1.825363893428264e-05,1.012202458053019e-05,1.57316571528788e-06,0.0016255139055544,3.269250176653941e-06,Sat
0.37955769200000056,5.966134318191833e-06,1.823479262175122e-05,1.0099823266064034e-05,1.5726946601093017e-06,0.00162547324837,3.2460752404025784e-06,Sat
0.38007692299999984,5.958217453380518e-06,1.821209790357814e-05,1.006595349968394e-05,1.5714217234603862e-06,0.0016255026976544,3.2201769827633468e-06,Sat
0.380596154,5.950620470682538e-06,1.8184685066555147e-05,1.002025431879026e-05,1.570564745677287e-06,0.0016255171589795,3.191265812807433e-06,Sat
0.3811153850000002,5.945351588913751e-06,1.815245041887436e-05,9.968383499463263e-06,1.5701901762810144e-06,0.0016254619755719,3.159267455577233e-06,Sat
0.3816346150000003,5.942447386740854e-06,1.8115780620186183e-05,9.917996818243691e-06,1.5693769003535425e-06,0.0016254663491089,3.124844412298432e-06,Sat
0.38215384600000046,5.940559102106841e-06,1.8076248201060014e-05,9.873700022052362e-06,1.5696045619541137e-06,0.0016255026314486,3.0895716083569697e-06,Sat
0.38267307700000064,5.938465395777428e-06,1.803691827206519e-05,9.836539285652823e-06,1.5704005079120123e-06,0.0016254195836459,3.055319969039064e-06,Sat
0.3831923079999999,5.935661510322055e-06,1.8001061889288276e-05,9.806348235042757e-06,1.5706210574034504e-06,0.0016253488830862,3.0234128063332666e-06,Sat
0.383711538,5.932641342978349e-06,1.7967953027517793e-05,9.783892908650989e-06,1.5708216700226892e-06,0.0016253991045698,2.994618418261476e-06,Sat
0.3842307690000002,5.929918766448332e-06,1.793294903156195e-05,9.77106308237275e-06,1.5717490767565788e-06,0.0016254556979648,2.9697033452883223e-06,Sat
0.38475000000000037,5.927412477438458e-06,1.7892478814123645e-05,9.767431983209908e-06,1.574110583604057e-06,0.0016247213514373,2.9495157334469413e-06,Sat
0.38526923100000054,5.925254107940651e-06,1.7848553804729983e-05,9.767456779878451e-06,1.5761171589226794e-06,0.0016173042192445,2.9346093202867e-06,Sat
0.38578846199999983,5.9241786725041545e-06,1.780926740767774e-05,9.765307123410776e-06,1.576624650138673e-06,0.00159423369141,2.9249891477792865e-06,Sat
0.3863076919999999,5.924145194624996e-06,1.778133461870067e-05,9.75998588865829e-06,1.5768339277830729e-06,0.0015595919023383,2.919985603481429e-06,Sat
0.3868269230000001,5.923980997792458e-06,1.7763626190980795e-05,9.752629900960116e-06,1.5776819702156078e-06,0.0015307023984444,2.9182295982959354e-06,Sat
0.3873461540000003,5.923551749192254e-06,1.77508652494641e-05,9.743984399062404e-06,1.5803278315428753e-06,0.0015160638831002,2.9180523495301807e-06,Sat
0.38786538500000045,5.923321087497951e-06,1.7739904208841235e-05,9.7360124092101e-06,1.583126803525323e-06,0.0015107197333477,2.918015374969164e-06,Sat
0.38838461500000054,5.92334724302557e-06,1.7731429632133272e-05,9.73150668104114e-06,1.584276905301956e-06,0.0015088198402469,2.916876289160067e-06,Sat
0.38890384599999983,5.923385240733087e-06,1.7726812574171065e-05,9.73009343223752e-06,1.584681981091047e-06,0.0015081610160646,2.913114336478836e-06,Sat
0.389423077,5.921788185191191e-06,1.7725299259041756e-05,9.728817898851032e-06,1.5851944750140153e-06,0.001508155056253,2.904790467117143e-06,Sat
