Time,Rectus Femoris,Vastus Medialis,Vastus Lateralis,Bicep Femoris,Tibialis,Gastrocnemius Medialis,Activity
0.00025961499999915816,5.25585330162417e-06,3.001051380934392e-05,0.0001160000564333,8.187130389755238e-06,1.6185941129060373e-05,2.798671258974794e-06,Unknown
0.0007788459999993336,5.245880277773698e-06,2.9950811801458222e-05,0.0001121331275533,8.141573957849043e-06,1.6079114456678906e-05,2.789200969495033e-06,Unknown
0.001298076999999509,5.233698385272488e-06,2.984007917614535e-05,0.0001082244960478,8.114070674718237e-06,1.598574325991795e-05,2.783541263630146e-06,Unknown
0.0018173079999996844,5.2285939789084405e-06,2.9660510182687747e-05,0.0001043127338322,8.0738689592491e-06,1.592660208338497e-05,2.780514279596725e-06,Unknown
0.002336537999998889,5.2353033973362975e-06,2.940436837427565e-05,0.0001004200556601,7.984285556476053e-06,1.5896668051923508e-05,2.779182440415201e-06,Unknown
0.0028557689999990643,5.247357456351812e-06,2.907545034381423e-05,9.657511947311647e-05,7.830340109036779e-06,1.5876980998972012e-05,2.779070092040933e-06,Unknown
0.0033749999999992397,5.254769512146733e-06,2.8680063876780503e-05,9.282486045290376e-05,7.63970139122457e-06,1.585338935586689e-05,2.779731262048402e-06,Unknown
0.003894230999999415,5.252705462372346e-06,2.8219666026888052e-05,8.921501682164402e-05,7.469482090279363e-06,1.5827227045749602e-05,2.7800431471842445e-06,Unknown
0.0044134619999995905,5.241106749986765e-06,2.769409569753386e-05,8.5765466547867e-05,7.349466422637675e-06,1.581613108398083e-05,2.778330519599261e-06,Unknown
0.004932691999999683,5.221978520020111e-06,2.7108560752982573e-05,8.247608902187761e-05,7.261973853238405e-06,1.5828861565903532e-05,2.773390669588118e-06,Unknown
0.0054519229999989705,5.203822903897374e-06,2.6474022393587697e-05,7.93553552341434e-05,7.175913213805293e-06,1.5847877784765328e-05,2.764821809546508e-06,Unknown
0.005971153999999146,5.196071255037773e-06,2.580076960091918e-05,7.643222328112208e-05,7.069999651184567e-06,1.5852193452785444e-05,2.752216067409672e-06,Unknown
0.006490384999999321,5.195100287055118e-06,2.509382424481073e-05,7.373889547000898e-05,6.944385324868353e-06,1.584046524294034e-05,2.734607575315933e-06,Unknown
0.007009614999999414,5.193010002273406e-06,2.435525131648928e-05,7.129280451425396e-05,6.821741858468588e-06,1.582136363402753e-05,2.710854497295063e-06,Unknown
0.007528845999999589,5.1818927175042345e-06,2.358805974591738e-05,6.909704617976903e-05,6.724118937810796e-06,1.5792852924149217e-05,2.68019524812758e-06,Unknown
0.008048076999998877,5.152073524149713e-06,2.279491891126361e-05,6.714649551525776e-05,6.655314409144364e-06,1.572343973792458e-05,2.641986419449189e-06,Unknown
0.008567307999999052,5.100083629664901e-06,2.1976034981705003e-05,6.543082382190062e-05,6.605479651426247e-06,1.554229316516076e-05,2.594947864020081e-06,Unknown
0.009086537999999145,5.022566377192936e-06,2.113568623355426e-05,6.394266840501465e-05,6.5636689825388585e-06,1.523544179722726e-05,2.5374163136614872e-06,Unknown
0.00960576899999932,4.917619217885834e-06,2.029165461947073e-05,6.268660971333068e-05,6.526458106175434e-06,1.4969646142952852e-05,2.468971700007242e-06,Unknown
0.010124999999999496,4.801292760600997e-06,1.9469260799825725e-05,6.167077695485838e-05,6.496842758695715e-06,1.4886716837060638e-05,2.391461064824108e-06,Unknown
0.010644230999999671,4.70030385503996e-06,1.868214902441769e-05,6.0886090992231625e-05,6.477347992704332e-06,1.4886656616253014e-05,2.3076354516526047e-06,Unknown
0.011163461999998958,4.627779425704932e-06,1.7927217808510116e-05,6.030168845363342e-05,6.467726032764319e-06,1.487900429861884e-05,2.219075868114189e-06,Unknown
0.01168269199999905,4.580653856328018e-06,1.7201830304999973e-05,5.988172465356181e-05,6.465348962024733e-06,1.4878994013793652e-05,2.12613647888997e-06,Unknown
0.012201922999999226,4.5512377576345575e-06,1.6517101300819402e-05,5.959821386734652e-05,6.465213508108815e-06,1.4847098585640011e-05,2.029623700194317e-06,Unknown
0.012721153999999402,4.534669068160669e-06,1.5886260064441235e-05,5.942698775776482e-05,6.465176961873397e-06,1.4767794679108687e-05,1.9321023522339613e-06,Unknown
0.013240384999999577,4.5290685396355744e-06,1.5306414654024135e-05,5.934051610795554e-05,6.46492011265467e-06,1.470261425195484e-05,1.8376573939216457e-06,Unknown
0.01375961499999967,4.531850281524414e-06,1.476484698614458e-05,5.930904203802003e-05,6.461357826997551e-06,1.4679032204534966e-05,1.750418977095792e-06,Unknown
0.014278845999998957,4.544435523704359e-06,1.4263323259107312e-05,5.930536880836772e-05,6.454076571310158e-06,1.4677261607076304e-05,1.6730535720305352e-06,Unknown
0.014798076999999132,4.572835301673318e-06,1.3825205721740126e-05,5.9306518429498256e-05,6.440116355421489e-06,1.4682209876340747e-05,1.6064270003848508e-06,Unknown
0.015317307999999308,4.607804969896265e-06,1.3470964086085944e-05,5.929126494097057e-05,6.413566002062952e-06,1.4693832405569229e-05,1.5504708074470082e-06,Unknown
0.0158365379999994,4.617976733833006e-06,1.3193373049239514e-05,5.923940006782576e-05,6.381084831392163e-06,1.4710080586891975e-05,1.505057773095377e-06,Unknown
0.016355768999999576,4.585898199026046e-06,1.2963496816594913e-05,5.913584413831416e-05,6.347411149931608e-06,1.4714351798641364e-05,1.469906871399666e-06,Unknown
0.016874999999998863,4.530021132075491e-06,1.2753640768334823e-05,5.897242894170599e-05,6.302539504428155e-06,1.4717637667203505e-05,1.444119476025963e-06,Unknown
0.01739423099999904,4.4772415230221855e-06,1.2555391535914568e-05,5.874395621688772e-05,6.239610925975462e-06,1.4755466106943136e-05,1.4266037925411994e-06,Unknown
0.017913461999999214,4.439937165655741e-06,1.2382133657528228e-05,5.8443062897359687e-05,6.1585349633494285e-06,1.4806727945447089e-05,1.4168443416934711e-06,Unknown
0.018432691999999307,4.416480499840148e-06,1.2248464233393037e-05,5.8058224278533054e-05,6.070615240678371e-06,1.4817113123723897e-05,1.4143829357538009e-06,Unknown
0.018951922999999482,4.399395781568051e-06,1.215192082066521e-05,5.7577294499606126e-05,6.002431440138704e-06,1.4783287283976277e-05,1.4175242137141293e-06,Unknown
0.019471153999999657,4.381678112943464e-06,1.2081343607283827e-05,5.699576669146949e-05,5.968477692702405e-06,1.4740020937827607e-05,1.4234551279610234e-06,Unknown
0.019990384999998945,4.355094958530133e-06,1.2031656332060344e-05,5.632122075406798e-05,5.95735303118919e-06,1.4704867755760971e-05,1.4296654942615022e-06,Unknown
0.020509614999999037,4.321662998875789e-06,1.2004278978072042e-05,5.556585717255157e-05,5.947040550271314e-06,1.4677805485392263e-05,1.4349853871730612e-06,Unknown
0.021028845999999213,4.297715313188063e-06,1.1995015161374829e-05,5.473531166956317e-05,5.920681877987928e-06,1.467546617272816e-05,1.4395127267237765e-06,Unknown
0.021548076999999388,4.289470967626544e-06,1.199345662024199e-05,5.382908511125355e-05,5.879170440716693e-06,1.4696054313072953e-05,1.4435789196670193e-06,Unknown
0.022067307999999564,4.287819165942568e-06,1.1994631178906776e-05,5.285088689417588e-05,5.836377899954256e-06,1.4496768794324408e-05,1.4470860655403406e-06,Unknown
0.022586537999999656,4.2862250638712925e-06,1.1998030789254072e-05,5.181017320712395e-05,5.8021157135302575e-06,1.3741828775359646e-05,1.4497198982881712e-06,Unknown
0.023105768999998944,4.290728933545042e-06,1.2002255304452932e-05,5.071034214753634e-05,5.777170176283974e-06,1.3016518241504647e-05,1.4511184928206857e-06,Unknown
0.02362499999999912,4.3067765717328375e-06,1.2003154429650652e-05,4.954202574125157e-05,5.753439400058376e-06,1.3146700950399804e-05,1.450665563002344e-06,Unknown
0.024144230999999294,4.325328991323254e-06,1.1994219680412896e-05,4.829385125635887e-05,5.720271456758283e-06,1.312887573011132e-05,1.4472836425353357e-06,Unknown
0.02466346199999947,4.336768928591827e-06,1.1972735309004525e-05,4.696968280100354e-05,5.680854557595406e-06,1.2358415190191209e-05,1.4399718060853502e-06,Unknown
0.025182691999999562,4.341104829983049e-06,1.1941289123056391e-05,4.5589402169192405e-05,5.646744365144341e-06,1.1927936675434514e-05,1.4288248335129369e-06,Unknown
0.02570192299999885,4.342284537286745e-06,1.190206067214544e-05,4.4171613626268587e-05,5.619858126100466e-06,1.2122715147855807e-05,1.4150189165064353e-06,Unknown
0.026221153999999025,4.343946944580495e-06,1.1853998982161494e-05,4.272189677788456e-05,5.597951746821225e-06,1.2433941297055935e-05,1.399734926255696e-06,Unknown
0.0267403849999992,4.346134377201144e-06,1.1794328082958258e-05,4.123645903023596e-05,5.579048439245718e-06,1.2635222615707528e-05,1.3834984278427638e-06,Unknown
0.027259614999999293,4.344867657359637e-06,1.1719830762112403e-05,3.9710074957046935e-05,5.5546666310150655e-06,1.2661730136874647e-05,1.3665627172466015e-06,Unknown
0.02777884599999947,4.3416859942696064e-06,1.162677724696692e-05,3.8140525084471553e-05,5.514409475003493e-06,1.2769457923745502e-05,1.3496928615989688e-06,Unknown
0.028298076999999644,4.342789754042281e-06,1.1511688662210644e-05,3.6533330921435176e-05,5.45425117438513e-06,1.3044252141823653e-05,1.334423387606737e-06,Unknown
0.02881730799999893,4.346779580520938e-06,1.1374757681069032e-05,3.4910630819982414e-05,5.386281917362533e-06,1.3315413750532974e-05,1.3223556247682106e-06,Unknown
0.029336537999999024,4.346886858733468e-06,1.12219711687946e-05,3.3315327602266816e-05,5.336043156113373e-06,1.3512892012520049e-05,1.3140231101989054e-06,Unknown
0.0298557689999992,4.343326862098555e-06,1.1059391927302414e-05,3.179781457451818e-05,5.31211765855926e-06,1.3604345724318106e-05,1.3085404004769796e-06,Unknown
0.030374999999999375,4.342963727240404e-06,1.088673988195625e-05,3.0390574753690573e-05,5.301719914508786e-06,1.359468430648922e-05,1.3045431720686049e-06,Unknown
0.03089423099999955,4.344322897762268e-06,1.069868235216664e-05,2.909387465191617e-05,5.29603648362867e-06,1.3551915369744914e-05,1.3013378058927684e-06,Unknown
0.03141346199999884,4.34315437351129e-06,1.0490135626899185e-05,2.7888130275886187e-05,5.293592525857614e-06,1.3526338305258516e-05,1.2989513877065332e-06,Unknown
0.03193269199999893,4.341893033951216e-06,1.0262287394918232e-05,2.6760307221818543e-05,5.293684470108477e-06,1.352847819653882e-05,1.2971241660882986e-06,Unknown
0.032451922999999105,4.342917792400532e-06,1.0024082771147164e-05,2.571602208432542e-05,5.292369214172528e-06,1.3546380690933643e-05,1.2948785646696836e-06,Unknown
0.03297115399999928,4.350220058621373e-06,9.783731418841728e-06,2.4767604482995897e-05,5.288548484833368e-06,1.356998275004537e-05,1.2916908357295164e-06,Unknown
0.033490384999999456,4.363443901784267e-06,9.538022502208065e-06,2.391925658353444e-05,5.287857107554937e-06,1.3607061537911608e-05,1.28858102632949e-06,Unknown
0.03400961499999955,4.374186422056915e-06,9.2727957787314e-06,2.3170027613336927e-05,5.289675699774591e-06,1.3657460612307896e-05,1.2874471612670682e-06,Unknown
0.034528845999998836,4.380077934233607e-06,8.973313540752876e-06,2.2525725728512565e-05,5.292322152018914e-06,1.3695114375089656e-05,1.2891052717786734e-06,Unknown
0.03504807699999901,4.378963504098969e-06,8.640520146033716e-06,2.199859912093208e-05,5.298704763828469e-06,1.3698386692487462e-05,1.292358088433351e-06,Unknown
0.03556730799999919,4.365928786292668e-06,8.300470988328257e-06,2.159393552216004e-05,5.304956202824303e-06,1.367624012288321e-05,1.295756696610926e-06,Unknown
0.03608653799999928,4.352893423382294e-06,7.984053973168713e-06,2.130155305151844e-05,5.3034282586849385e-06,1.3654585967164629e-05,1.2994310618778915e-06,Unknown
0.036605768999999455,4.354567434243082e-06,7.69926509728654e-06,2.1100170669222645e-05,5.291580650883533e-06,1.3655665045801163e-05,1.3042641999748765e-06,Unknown
0.03712499999999963,4.363498789317708e-06,7.434523033874255e-06,2.09656761055394e-05,5.269023507670085e-06,1.36924606872868e-05,1.3103352381976478e-06,Unknown
0.03764423099999892,4.3655761118373865e-06,7.181914239166505e-06,2.087620601921913e-05,5.237147625752672e-06,1.3771721833510047e-05,1.3168292023712707e-06,Unknown
0.03816346199999909,4.368954018057651e-06,6.950351958956877e-06,2.0816019303929496e-05,5.205688814630425e-06,1.3898513233597833e-05,1.3229293176988573e-06,Unknown
0.038682691999999186,4.394010371107273e-06,6.757445789194227e-06,2.0778665769382705e-05,5.184536178289369e-06,1.4076545690596888e-05,1.3284988805804084e-06,Unknown
0.03920192299999936,4.435764325103974e-06,6.612692329266244e-06,2.0762207172174996e-05,5.171246409259147e-06,1.4303535453165454e-05,1.3337920277696904e-06,Unknown
0.03972115399999954,4.476346066946457e-06,6.511519302477929e-06,2.0760626349194988e-05,5.1556408552673015e-06,1.4562707395371628e-05,1.3388407255299231e-06,Unknown
0.040240384999998824,4.512192404074077e-06,6.441333654894808e-06,2.076602166290833e-05,5.12492314774065e-06,1.48205680735914e-05,1.343576258929464e-06,Unknown
0.04075961499999892,4.552312293464676e-06,6.391491590036068e-06,2.077318783458816e-05,5.073462401280053e-06,1.5044299886790415e-05,1.3481057409013192e-06,Unknown
0.04127884599999909,4.6006419900052056e-06,6.360307917866722e-06,2.0775962843035845e-05,5.016685011981963e-06,1.5220010251032592e-05,1.3524848311880368e-06,Unknown
0.04179807699999927,4.637498487647344e-06,6.352221128083798e-06,2.0763760632853128e-05,4.974092614539964e-06,1.535129171786978e-05,1.3564467584214207e-06,Unknown
0.04231730799999944,4.654172201593012e-06,6.369542147222042e-06,2.0728499982817323e-05,4.944078400347876e-06,1.545062597033114e-05,1.3596689825921192e-06,Unknown
0.042836537999999535,4.666509065801372e-06,6.409850864332693e-06,2.067287661705846e-05,4.91425934223581e-06,1.5532709731258105e-05,1.3622582790029051e-06,Unknown
0.04335576899999882,4.679197555072964e-06,6.471276430096721e-06,2.0601036987292045e-05,4.875955075917849e-06,1.560876371360611e-05,1.3644547500474256e-06,Unknown
0.043874999999999,4.688724578343694e-06,6.558643965983988e-06,2.0506426183546763e-05,4.826773142408227e-06,1.568431590388061e-05,1.3661059692718983e-06,Unknown
0.044394230999999174,4.694918176787955e-06,6.682299219239063e-06,2.0377862120667693e-05,4.777167953656769e-06,1.5759007865688938e-05,1.3669553811295328e-06,Unknown
0.04491346199999935,4.697589516073453e-06,6.845686958443977e-06,2.021435878263733e-05,4.7400827307446135e-06,1.5827560044998444e-05,1.3670306539230602e-06,Unknown
0.04543269199999944,4.701016980782431e-06,7.029274901582475e-06,2.002783988756886e-05,4.715562741597426e-06,1.5883286516006125e-05,1.3665987351273515e-06,Unknown
0.04595192299999962,4.709457901757546e-06,7.196754166610331e-06,1.9825359073279137e-05,4.697671544831628e-06,1.592035016158104e-05,1.3660400797407309e-06,Unknown
0.046471153999998904,4.720998520837203e-06,7.326122821086992e-06,1.9594165749547472e-05,4.684688355442588e-06,1.5934544163273378e-05,1.365525909570144e-06,Unknown
0.04699038499999908,4.7284140005126805e-06,7.424466530966561e-06,1.931200548085616e-05,4.676902645922301e-06,1.5929680359939027e-05,1.3645997704842534e-06,Unknown
0.04750961499999917,4.726532453101012e-06,7.512315591186198e-06,1.896840246753399e-05,4.673490138015528e-06,1.5920252971536256e-05,1.362923021109692e-06,Unknown
0.04802884599999935,4.723986029079671e-06,7.602716375615825e-06,1.8574452499456777e-05,4.676573290829244e-06,1.5916948140530773e-05,1.361466389451267e-06,Unknown
0.04854807699999952,4.72301498240292e-06,7.691473056003139e-06,1.8150362410374545e-05,4.690085906104519e-06,1.5917304095656032e-05,1.361519783091754e-06,Unknown
0.04906730799999881,4.704018573438578e-06,7.765784047150225e-06,1.770505240925508e-05,4.709050216980954e-06,1.591223334396156e-05,1.3632025824064693e-06,Unknown
0.0495865379999989,4.665252849987919e-06,7.819155752063347e-06,1.723873379471943e-05,4.720612184481765e-06,1.5889721187852984e-05,1.3653726091660417e-06,Unknown
0.05010576899999908,4.632929549318025e-06,7.85186876533217e-06,1.6758008361966275e-05,4.721580364966164e-06,1.584614939005707e-05,1.3662464243035457e-06,Unknown
0.050624999999999254,4.620074061928356e-06,7.863797259489352e-06,1.6273632719778008e-05,4.720353785675108e-06,1.579620659304547e-05,1.3660171734900849e-06,Unknown
0.05114423099999943,4.618279890680062e-06,7.855134356143783e-06,1.5793832197765783e-05,4.720348568601516e-06,1.5759229296268404e-05,1.3675439959129476e-06,Unknown
0.051663461999999605,4.618218613647152e-06,7.83093202689528e-06,1.5326700418169277e-05,4.720215017346815e-06,1.5745500455501326e-05,1.371344392357224e-06,Unknown
0.05218269199999881,4.616725070583128e-06,7.797721650754145e-06,1.487830346525964e-05,4.719848922633508e-06,1.5756680892896285e-05,1.3741014205933794e-06,Unknown
0.052701922999998985,4.61293959497841e-06,7.757183499818971e-06,1.444723117616602e-05,4.716957440771966e-06,1.5788312220340058e-05,1.3739875397241485e-06,Unknown
0.05322115399999916,4.606775807663559e-06,7.707242613699366e-06,1.4025226098944036e-05,4.712234539893544e-06,1.5833687429945293e-05,1.3727364252652783e-06,Unknown
0.053740384999999335,4.601643871152822e-06,7.649344051378811e-06,1.3603554266230713e-05,4.710410788736939e-06,1.5888022370989648e-05,1.3725971308041345e-06,Unknown
0.05425961499999943,4.601966856423528e-06,7.592828400154563e-06,1.3181751340722471e-05,4.717020422111891e-06,1.5943888094781603e-05,1.3744432520293703e-06,Unknown
0.054778845999999604,4.60598589511152e-06,7.547476554924581e-06,1.2772065770589696e-05,4.731888080114933e-06,1.5992922133831742e-05,1.37843267618354e-06,Unknown
0.05529807699999889,4.60774916137723e-06,7.513107719698403e-06,1.239486749427797e-05,4.738605316592227e-06,1.6037679353282707e-05,1.3845030250184747e-06,Unknown
0.055817307999999066,4.607360229837743e-06,7.4806413152266415e-06,1.2061196437455823e-05,4.726905910979337e-06,1.6087042398956457e-05,1.3920634926188051e-06,Unknown
0.05633653799999916,4.608777332210724e-06,7.439742829725592e-06,1.1756209146534822e-05,4.711429391950116e-06,1.6146838588591052e-05,1.3999678876748928e-06,Unknown
0.056855768999999334,4.611117277608656e-06,7.38864814186558e-06,1.1454701339922889e-05,4.7021806637530965e-06,1.621988431943866e-05,1.406759957265965e-06,Unknown
0.05737499999999951,4.61265448249914e-06,7.340106241853338e-06,1.1156530737600208e-05,4.694863042705153e-06,1.630374045700398e-05,1.4112838083629554e-06,Unknown
0.057894230999999685,4.616264667404432e-06,7.306247533560092e-06,1.0897307430293022e-05,4.692408987429615e-06,1.6392107966804976e-05,1.4134428811041074e-06,Unknown
0.05841346199999897,4.6243766949315885e-06,7.284137665912658e-06,1.0721906766352017e-05,4.694150412341168e-06,1.648400615633314e-05,1.4140335362859692e-06,Unknown
0.058932691999999065,4.634628093133309e-06,7.264785286566212e-06,1.064536403730944e-05,4.69185898618031e-06,1.658258159399408e-05,1.413921120936516e-06,Unknown
0.05945192299999924,4.641430179540899e-06,7.244246166309742e-06,1.0638685882778552e-05,4.687991445094217e-06,1.667961219421396e-05,1.413644565110246e-06,Unknown
0.059971153999999416,4.640697332377016e-06,7.226078818240019e-06,1.0657300468795262e-05,4.681471616338993e-06,1.6760767889080795e-05,1.413883207949431e-06,Unknown
0.06049038499999959,4.637352021731567e-06,7.215161469901627e-06,1.0679122761600392e-05,4.664818754586846e-06,1.682517694018072e-05,1.416782445356602e-06,Unknown
0.061009614999999684,4.6415281154266284e-06,7.209863897137683e-06,1.0710809855163873e-05,4.64589420235701e-06,1.6883014056558e-05,1.4265436371283943e-06,Unknown
0.06152884599999897,4.657554160191884e-06,7.2030431871612695e-06,1.0767121795000746e-05,4.635112882416053e-06,1.6946540788503178e-05,1.446103447202502e-06,Unknown
0.06204807699999915,4.681462024924628e-06,7.19016366026441e-06,1.0856985808608324e-05,4.630126583369885e-06,1.7022129968371816e-05,1.4726764652920963e-06,Unknown
0.06256730799999932,4.704072289183159e-06,7.176076987707604e-06,1.098663568711312e-05,4.626957387891061e-06,1.7099343404054958e-05,1.5000059843844866e-06,Unknown
0.06308653799999941,4.716504375283401e-06,7.171155695567039e-06,1.1159189720958598e-05,4.625930691618375e-06,1.716226882118824e-05,1.5243903969944663e-06,Unknown
0.06360576899999959,4.7143177711072895e-06,7.180365675558489e-06,1.1362779317006776e-05,4.630915431111206e-06,1.7209768272957097e-05,1.545862266549676e-06,Unknown
0.06412499999999888,4.699620491361055e-06,7.199359858646803e-06,1.156915033871597e-05,4.646066020341117e-06,1.7252538114650082e-05,1.5655753271235362e-06,Unknown
0.06464423099999905,4.685692667224233e-06,7.223091144350294e-06,1.1754987449666549e-05,4.66678867510583e-06,1.7299930572350993e-05,1.5840842769914713e-06,Unknown
0.06516346199999923,4.685370649249392e-06,7.2529443322976626e-06,1.1919171663110392e-05,4.682585349959542e-06,1.7351354168341797e-05,1.6013114267570507e-06,Unknown
0.06568269199999932,4.6918716786448495e-06,7.291938509707913e-06,1.2075718250196698e-05,4.691429651329637e-06,1.7396833997832133e-05,1.6169853835818176e-06,Unknown
0.0662019229999995,4.693117335095016e-06,7.33528069141528e-06,1.2235763320662208e-05,4.698528552370224e-06,1.7428348223132444e-05,1.630891128840335e-06,Unknown
0.06672115399999967,4.690609055761565e-06,7.374545113537066e-06,1.2394990913621736e-05,4.709312940776248e-06,1.7446793213649422e-05,1.642920011254492e-06,Unknown
0.06724038499999896,4.68722579912142e-06,7.41354031145861e-06,1.2536177578007598e-05,4.723007579480191e-06,1.7457635033956808e-05,1.652868720105785e-06,Unknown
0.06775961499999905,4.679661448725055e-06,7.466514406233281e-06,1.2647726592331231e-05,4.730270317242782e-06,1.7465182185069483e-05,1.6602556350904372e-06,Unknown
0.06827884599999923,4.662714498809839e-06,7.535253580640639e-06,1.27371047593507e-05,4.730041346223326e-06,1.7470981131207207e-05,1.664646955945258e-06,Unknown
0.0687980769999994,4.637627175604227e-06,7.597591950781325e-06,1.2820485948649324e-05,4.729591607691899e-06,1.747465442060947e-05,1.666299300441975e-06,Unknown
0.06931730799999958,4.619727478338852e-06,7.635721662180581e-06,1.2904576217821156e-05,4.732432555256191e-06,1.747619508664327e-05,1.6663418005737842e-06,Unknown
0.06983653799999967,4.615703148434046e-06,7.654929946337612e-06,1.2981192720857054e-05,4.743076692778011e-06,1.747823237447557e-05,1.666094295017946e-06,Unknown
0.07035576899999896,4.615393915065222e-06,7.66341009140271e-06,1.303657525531802e-05,4.760494134618262e-06,1.7482962419685223e-05,1.6662140863634306e-06,Unknown
0.07087499999999913,4.615887932416668e-06,7.664599003826004e-06,1.3068102475571422e-05,4.774933225948824e-06,1.7488002737265637e-05,1.6667216943219415e-06,Unknown
0.07139423099999931,4.614058797155582e-06,7.661643397490418e-06,1.3079825562871394e-05,4.783293221280245e-06,1.7490221282930222e-05,1.6676076141004825e-06,Unknown
0.07191346199999948,4.600708790087688e-06,7.656579839169344e-06,1.3062250565630274e-05,4.788831171167229e-06,1.7489343543446696e-05,1.6690970302510964e-06,Unknown
0.07243269199999958,4.583117630328461e-06,7.650687927132232e-06,1.3007688410681991e-05,4.793343704491238e-06,1.7488238159479225e-05,1.6714935574512808e-06,Unknown
0.07295192299999886,4.574228070090908e-06,7.644899314397645e-06,1.2936451923817158e-05,4.79771159131961e-06,1.749043114070881e-05,1.6749703240714377e-06,Unknown
0.07347115399999904,4.571152903266285e-06,7.6416979411725e-06,1.287690623535231e-05,4.800191165544593e-06,1.7493651346453895e-05,1.679600992574001e-06,Unknown
0.07399038499999921,4.5664568424375325e-06,7.644288051886875e-06,1.2836805394517715e-05,4.799438293775852e-06,1.7492935208914512e-05,1.6855239931640986e-06,Unknown
0.07450961499999931,4.555549643354518e-06,7.650763529747141e-06,1.2809453070326094e-05,4.79817755601108e-06,1.748812184151219e-05,1.6928638954442609e-06,Unknown
0.07502884599999948,4.541377684538775e-06,7.654749938800528e-06,1.2790990222124376e-05,4.797968975658763e-06,1.7481651695633792e-05,1.701496326970558e-06,Unknown
0.07554807699999966,4.534293148421648e-06,7.65436800398759e-06,1.2783344279689172e-05,4.798715098079511e-06,1.747592953918588e-05,1.711225863498005e-06,Unknown
0.07606730799999895,4.5341313749984604e-06,7.652286243509704e-06,1.2784531039821967e-05,4.800087629710456e-06,1.747609692840558e-05,1.722374308802454e-06,Unknown
0.07658653799999904,4.534602491482076e-06,7.649356278742854e-06,1.2783356372485435e-05,4.800476031379254e-06,1.7490292548605133e-05,1.7359319946566206e-06,Unknown
0.07710576899999921,4.535191771416105e-06,7.64405293336636e-06,1.276869014774709e-05,4.800466621646647e-06,1.7523480073072873e-05,1.752839820635502e-06,Unknown
0.07762499999999939,4.5359212695643e-06,7.634141127584748e-06,1.2739886512139538e-05,4.8008957209472376e-06,1.7575815703268173e-05,1.7730906173847242e-06,Unknown
0.07814423099999956,4.535855585698202e-06,7.618356080261635e-06,1.2702090923557684e-05,4.800318222881912e-06,1.7650321658039856e-05,1.795803912471624e-06,Unknown
0.07866346199999885,4.535679911479777e-06,7.598334913276032e-06,1.2655610823545935e-05,4.801481696093925e-06,1.7752368769479832e-05,1.8200406015487693e-06,Unknown
0.07918269199999894,4.539208805090651e-06,7.578041854570706e-06,1.2597402391995724e-05,4.808651277849685e-06,1.7879517129420458e-05,1.844996957773992e-06,Unknown
0.07970192299999912,4.548977526161902e-06,7.561493371426378e-06,1.2532353330472376e-05,4.818553780342449e-06,1.802289995025432e-05,1.8696678684406875e-06,Unknown
0.0802211539999993,4.558711219174804e-06,7.551146178602975e-06,1.2477016738815232e-05,4.82463514126682e-06,1.8175387123128907e-05,1.8929375653348263e-06,Unknown
0.08074038499999947,4.561286759762627e-06,7.545495072677069e-06,1.2443652058784262e-05,4.824214987067503e-06,1.8331064330876805e-05,1.9141651653785555e-06,Unknown
0.08125961499999956,4.561020296759818e-06,7.540851968170048e-06,1.2427144379487898e-05,4.8176532027115084e-06,1.8483166227155574e-05,1.9334346196935623e-06,Unknown
0.08177884599999885,4.565173448379281e-06,7.53574181392559e-06,1.241482535041034e-05,4.8117337500744e-06,1.862344595848355e-05,1.951112886263715e-06,Unknown
0.08229807699999903,4.572879337646619e-06,7.530463443119134e-06,1.2397125299782243e-05,4.817759603443904e-06,1.8741702289153226e-05,1.967455261185677e-06,Unknown
0.0828173079999992,4.580465263327133e-06,7.525781144842e-06,1.2368129038875818e-05,4.832713051286047e-06,1.882935241066567e-05,1.982527888080144e-06,Unknown
0.0833365379999993,4.587396412523084e-06,7.522449509299738e-06,1.2325134100348962e-05,4.844317892898747e-06,1.8884656266120458e-05,1.9960714569640976e-06,Unknown
0.08385576899999947,4.594699425495005e-06,7.5205425658523485e-06,1.2270934407809506e-05,4.851144915176708e-06,1.891473866773529e-05,2.007553271414594e-06,Unknown
0.08437499999999964,4.602074788506836e-06,7.520049691725285e-06,1.221664139940348e-05,4.858065711030487e-06,1.89311326080239e-05,2.0167496424822213e-06,Unknown
0.08489423099999893,4.608191638701015e-06,7.521494306549903e-06,1.2177930848872707e-05,4.867548899307187e-06,1.8943236417153508e-05,2.024094514349617e-06,Unknown
0.08541346199999911,4.613378252133164e-06,7.523671908603338e-06,1.2165347571375118e-05,4.876224144181191e-06,1.8956679254363547e-05,2.030172390410868e-06,Unknown
0.0859326919999992,4.6177523525910986e-06,7.523446509891202e-06,1.218372705477932e-05,4.880963604727932e-06,1.897135589051872e-05,2.0351264201079386e-06,Unknown
0.08645192299999938,4.6213764804973216e-06,7.52217825177333e-06,1.2245396133679457e-05,4.884518671124799e-06,1.8980025577001903e-05,2.038702613401461e-06,Unknown
0.08697115399999955,4.625917981475098e-06,7.522936002769015e-06,1.2381409625954849e-05,4.89046994035537e-06,1.897574322205857e-05,2.0405783473263443e-06,Unknown
0.08749038499999884,4.628230618284709e-06,7.524466248802956e-06,1.2627521891386e-05,4.901866036935648e-06,1.895991768039909e-05,2.040488159680733e-06,Unknown
0.08800961499999893,4.624421545398712e-06,7.525418413922336e-06,1.2980202214940613e-05,4.917853194543762e-06,1.8942182694051303e-05,2.0382162920449665e-06,Unknown
0.0885288459999991,4.615422046845849e-06,7.524835296080622e-06,1.3378084723705996e-05,4.931908480786537e-06,1.8931571430574675e-05,2.0337754970471127e-06,Unknown
0.08904807699999928,4.599149140193734e-06,7.52266849698098e-06,1.3748759049772865e-05,4.938734748420995e-06,1.892764498956019e-05,2.02770823116962e-06,Unknown
0.08956730799999946,4.568585697484774e-06,7.52076708401307e-06,1.4061047867426262e-05,4.937921194902605e-06,1.892578012568482e-05,2.021046035385117e-06,Unknown
0.09008653799999955,4.519439398895277e-06,7.519421804937172e-06,1.4327771700648513e-05,4.933074016760466e-06,1.8925364167663865e-05,2.01484530181612e-06,Unknown
0.09060576899999884,4.459920643315666e-06,7.517820975031399e-06,1.4578125650826629e-05,4.929658875331194e-06,1.8927313901125183e-05,2.0097435570655103e-06,Unknown
0.09112499999999901,4.413616307015262e-06,7.516437076171382e-06,1.4827197652224832e-05,4.929373389794747e-06,1.893101481432487e-05,2.0058751006475237e-06,Unknown
0.09164423099999919,4.40003284424252e-06,7.5169896098191775e-06,1.50624553330889e-05,4.929095726994644e-06,1.8935469970338536e-05,2.003128529071376e-06,Unknown
0.09216346199999936,4.408069300565185e-06,7.519624700340358e-06,1.526346877667772e-05,4.92825289458028e-06,1.8940902314768515e-05,2.0013691926158663e-06,Unknown
0.09268269199999946,4.410988657465889e-06,7.524274780538579e-06,1.5425984294074143e-05,4.928368485785233e-06,1.8948041174566712e-05,2.000294196207906e-06,Unknown
0.09320192299999963,4.4055517564428726e-06,7.534640413245931e-06,1.5559166737451538e-05,4.928201361736176e-06,1.895624634970808e-05,1.9994952355550584e-06,Unknown
0.09372115399999892,4.403905793779768e-06,7.553371624695062e-06,1.566976835552376e-05,4.928015029661469e-06,1.896472455207937e-05,1.998957196555363e-06,Unknown
0.0942403849999991,4.403524025292236e-06,7.5764654997129185e-06,1.5753907876232664e-05,4.9286702754116e-06,1.8974344352495325e-05,1.999104051392785e-06,Unknown
0.09475961499999919,4.403442618126172e-06,7.597524480685313e-06,1.5804968670601288e-05,4.92943734372734e-06,1.8987217823314568e-05,2.0004278326198868e-06,Unknown
0.09527884599999936,4.406251415637944e-06,7.614119341379757e-06,1.5825729535493985e-05,4.9301214073975e-06,1.9004547822211435e-05,2.0032861263956434e-06,Unknown
0.09579807699999954,4.3991448789435374e-06,7.62818846892137e-06,1.5826801557218288e-05,4.922799950966586e-06,1.9024285394736418e-05,2.007867178994732e-06,Unknown
0.09631730799999882,4.385426893611483e-06,7.642000192816895e-06,1.5819632362622683e-05,4.905802856562578e-06,1.904323306145343e-05,2.0142499833148217e-06,Unknown
0.09683653799999892,4.383878048200523e-06,7.653631903687216e-06,1.5815823482174726e-05,4.896424948412041e-06,1.906078188045181e-05,2.0224396290483977e-06,Unknown
0.09735576899999909,4.381727187160136e-06,7.660625878917884e-06,1.5826179999376573e-05,4.8980371717287785e-06,1.9078582122974105e-05,2.032141157840316e-06,Unknown
0.09787499999999927,4.360933281485639e-06,7.665595331190465e-06,1.5856831114141022e-05,4.899960668431653e-06,1.90976500760193e-05,2.042544652678277e-06,Unknown
0.09839423099999944,4.341460854910498e-06,7.67434876435115e-06,1.5908577470768687e-05,4.901155379620996e-06,1.911629136248093e-05,2.052731673087963e-06,Unknown
0.09891346199999962,4.345131202791087e-06,7.694217694009027e-06,1.598073133239402e-05,4.896947990324799e-06,1.913274614566071e-05,2.0622558888450304e-06,Unknown
0.09943269199999882,4.359798762182686e-06,7.725246233012009e-06,1.6074135837957126e-05,4.882645428362469e-06,1.9150228370483773e-05,2.070942316300741e-06,Unknown
0.099951922999999,4.3676338725815664e-06,7.756259688360298e-06,1.6189418670721437e-05,4.868550855116507e-06,1.9175078512618727e-05,2.0784637395311104e-06,Unknown
0.10047115399999917,4.368330235155724e-06,7.779255412452365e-06,1.6322959089842664e-05,4.86265940576649e-06,1.920679037094902e-05,2.0845124411804314e-06,Unknown
0.10099038499999935,4.3652413602709525e-06,7.795304661958326e-06,1.6463142397763162e-05,4.86139133981526e-06,1.923559341976935e-05,2.0891276994324813e-06,Unknown
0.10150961499999944,4.363502659493083e-06,7.807312330352011e-06,1.6594016266430803e-05,4.860800403523688e-06,1.9255077645119085e-05,2.092765748621067e-06,Unknown
0.10202884599999962,4.378118373788219e-06,7.815606419629741e-06,1.6706560749528482e-05,4.8595809647750496e-06,1.926861820089953e-05,2.096067161161649e-06,Unknown
0.1025480769999989,4.41660419758003e-06,7.819449590224027e-06,1.6803531915399837e-05,4.858190276083644e-06,1.9281920373522347e-05,2.099489574372709e-06,Unknown
0.10306730799999908,4.464682035336138e-06,7.820071927667566e-06,1.6894393822085282e-05,4.858880772585664e-06,1.929747859318302e-05,2.103144931300485e-06,Unknown
0.10358653799999917,4.504531863393706e-06,7.819638885416604e-06,1.6983273168759524e-05,4.863684234259677e-06,1.931331148742289e-05,2.1069163903193188e-06,Unknown
0.10410576899999935,4.533775251351265e-06,7.819306137657482e-06,1.7063699221555645e-05,4.872163761444604e-06,1.932560071769485e-05,2.110757602397508e-06,Unknown
0.10462499999999952,4.5576639095603375e-06,7.819575673679278e-06,1.7129795552493973e-05,4.877895704856178e-06,1.933443400113082e-05,2.1148451175728998e-06,Unknown
0.10514423099999881,4.573623127222292e-06,7.820349733944124e-06,1.7183145675810907e-05,4.877575209793799e-06,1.9342548770381007e-05,2.119332643076661e-06,Unknown
0.10566346199999899,4.578903931138212e-06,7.822184386402904e-06,1.722564414935739e-05,4.87798918213612e-06,1.935075578713672e-05,2.123878416087375e-06,Unknown
0.10618269199999908,4.578838292894044e-06,7.824333554079698e-06,1.7252447283107864e-05,4.8804426425033165e-06,1.9357314415850856e-05,2.1275739093517265e-06,Unknown
0.10670192299999925,4.57517929017971e-06,7.823229241974114e-06,1.7257243923926533e-05,4.877361036247973e-06,1.93602634953746e-05,2.129655273082364e-06,Unknown
0.10722115399999943,4.567727949217845e-06,7.819755179937987e-06,1.7245405791269898e-05,4.868084234961274e-06,1.935995591118326e-05,2.1300206833004973e-06,Unknown
0.1077403849999996,4.562389823595183e-06,7.819393647907567e-06,1.7231916012041953e-05,4.860731986074019e-06,1.9359036701006646e-05,2.128885811688125e-06,Unknown
0.10825961499999881,4.561648114986291e-06,7.82418224342789e-06,1.7224303639771864e-05,4.860354639446917e-06,1.9360822615947485e-05,2.126395229944322e-06,Unknown
0.10877884599999899,4.561459325526657e-06,7.831496696972436e-06,1.7220023708171786e-05,4.8644724741490326e-06,1.9365527371924564e-05,2.1227229444908025e-06,Unknown
0.10929807699999916,4.561562394523435e-06,7.83778738014304e-06,1.7215472994867933e-05,4.868184945079771e-06,1.9370501140031317e-05,2.1181283360546395e-06,Unknown
0.10981730799999934,4.564769177348415e-06,7.841753075329542e-06,1.721021420263035e-05,4.867601031201203e-06,1.937490378307583e-05,2.112558985991043e-06,Unknown
0.11033653799999943,4.569666193700451e-06,7.844641435199011e-06,1.7206606509799182e-05,4.857991884229794e-06,1.938010102385489e-05,2.1055340716563693e-06,Unknown
0.1108557689999996,4.5743211420683465e-06,7.848025494282797e-06,1.720501564687147e-05,4.8373470817433056e-06,1.9388346443829484e-05,2.0967237589142566e-06,Unknown
0.11137499999999889,4.579527525170952e-06,7.851061030831742e-06,1.720392141304574e-05,4.81284774834636e-06,1.9399988639716474e-05,2.0865793517301507e-06,Unknown
0.11189423099999907,4.586136267810558e-06,7.8510230963225e-06,1.7202236271369327e-05,4.793358166166842e-06,1.9409944766249866e-05,2.07651334367719e-06,Unknown
0.11241346199999924,4.591035979437999e-06,7.845970242558745e-06,1.7200632361486584e-05,4.779140611183764e-06,1.941144269181414e-05,2.0682712522723114e-06,Unknown
0.11293269199999934,4.589296865991085e-06,7.833973190338542e-06,1.7205309451316523e-05,4.763878036190967e-06,1.9402494629676425e-05,2.062813654914201e-06,Unknown
0.11345192299999951,4.585931063613965e-06,7.815663383972787e-06,1.72205521297231e-05,4.737882124402076e-06,1.9387420289847923e-05,2.059933572846148e-06,Unknown
0.11397115399999969,4.590874217412468e-06,7.799024636585914e-06,1.724112954477954e-05,4.696131600037563e-06,1.9374731814965416e-05,2.058876182604249e-06,Unknown
0.11449038499999897,4.602170906799913e-06,7.79047375141875e-06,1.7260685287660864e-05,4.649740587149233e-06,1.93699070366636e-05,2.0590321598463337e-06,Unknown
0.11500961499999907,4.60966147230087e-06,7.787287386661037e-06,1.727950612834099e-05,4.614869271323913e-06,1.936981363260508e-05,2.0600650889285327e-06,Unknown
0.11552884599999924,4.606464764707286e-06,7.785591270512827e-06,1.7301092995251246e-05,4.592509983048042e-06,1.936997190054306e-05,2.061623916056236e-06,Unknown
0.11604807699999942,4.589416346323417e-06,7.784481457667452e-06,1.73258143085669e-05,4.571062121057724e-06,1.9369996934404e-05,2.063268819223862e-06,Unknown
0.11656730799999959,4.557478426504209e-06,7.784551130462204e-06,1.735004682695682e-05,4.53838677364967e-06,1.936982782371342e-05,2.064744072200353e-06,Unknown
0.11708653799999968,4.517626741885969e-06,7.78598933902805e-06,1.7370902774147197e-05,4.492824356709925e-06,1.936975554509687e-05,2.0660920969722284e-06,Unknown
0.11760576899999897,4.487102081448442e-06,7.787091027230902e-06,1.7388526733488102e-05,4.445392032971172e-06,1.936993519442136e-05,2.0674230790381583e-06,Unknown
0.11812499999999915,4.4730055786510125e-06,7.78708032749385e-06,1.7404208192670773e-05,4.406952255667796e-06,1.9369881244661537e-05,2.0686627590464783e-06,Unknown
0.11864423099999932,4.465950771791642e-06,7.787284879593126e-06,1.7417997651680654e-05,4.380625111008706e-06,1.9370194128691145e-05,2.0695538571667675e-06,Unknown
0.1191634619999995,4.458899191083525e-06,7.789429663677338e-06,1.7427884304816887e-05,4.365300624406538e-06,1.937094823979704e-05,2.0698291311354977e-06,Unknown
0.11968269199999959,4.450450175398223e-06,7.790516083675073e-06,1.743236261600251e-05,4.362396733399993e-06,1.9371766481144452e-05,2.0694359686588287e-06,Unknown
0.12020192299999888,4.4455114834470965e-06,7.785390142930228e-06,1.7433216587881443e-05,4.36709637130829e-06,1.937277818505449e-05,2.068507789678933e-06,Unknown
0.12072115399999905,4.453661644918926e-06,7.777705425697143e-06,1.7433257472715935e-05,4.368143330267396e-06,1.937361146902256e-05,2.0672672281352934e-06,Unknown
0.12124038499999923,4.480016980664874e-06,7.772801716483197e-06,1.7433042622726756e-05,4.366398824775501e-06,1.93734455610654e-05,2.066149504172892e-06,Unknown
0.12175961499999932,4.531648251387926e-06,7.769854786366873e-06,1.7433605160843685e-05,4.366704807509715e-06,1.9372649776407573e-05,2.065455915403774e-06,Unknown
0.1222788459999995,4.6077419482575735e-06,7.768278958230512e-06,1.743828910289706e-05,4.367893780074293e-06,1.937524347478465e-05,2.0650476532505347e-06,Unknown
0.12279807699999967,4.683582467212967e-06,7.768418011308131e-06,1.7448690962755714e-05,4.361426894787897e-06,1.9419403159498476e-05,2.064703119499354e-06,Unknown
0.12331730799999896,4.735996135818706e-06,7.770226334923226e-06,1.7462518203702605e-05,4.332397555404765e-06,1.9573373058821977e-05,2.0642764827130026e-06,Unknown
0.12383653799999905,4.764094047822049e-06,7.772256863812939e-06,1.7476851672965425e-05,4.285141087457038e-06,1.9823640925076263e-05,2.0636684019222197e-06,Unknown
0.12435576899999923,4.781400723663643e-06,7.772889770360532e-06,1.7491399477113517e-05,4.236577667624665e-06,2.0068179216916103e-05,2.0629533878129487e-06,Unknown
0.1248749999999994,4.802044214929267e-06,7.773135171846147e-06,1.7507903631665073e-05,4.1869794037005935e-06,2.025106747423619e-05,2.062315480022516e-06,Unknown
0.12539423099999958,4.829439399946432e-06,7.772492665476404e-06,1.7528326418531557e-05,4.1259796028678304e-06,2.0392105701226147e-05,2.061847388954818e-06,Unknown
0.12591346199999887,4.859563961917914e-06,7.770433756067084e-06,1.7554184591258072e-05,4.040077499883163e-06,2.052293366655331e-05,2.0615215364353096e-06,Unknown
0.12643269199999896,4.88615093264123e-06,7.770447523417172e-06,1.758619052359028e-05,3.931050409000034e-06,2.0647518604364623e-05,2.061276548796176e-06,Unknown
0.12695192299999913,4.898495541972032e-06,7.774344032237376e-06,1.7623266494529498e-05,3.829531211012956e-06,2.0749211706320515e-05,2.061059424277914e-06,Unknown
0.1274711539999993,4.886297531221346e-06,7.779365005166335e-06,1.7660101513704507e-05,3.757741623507242e-06,2.0820939885112624e-05,2.0607957694159296e-06,Unknown
0.12799038499999948,4.857143030540916e-06,7.781942525035304e-06,1.7687430222218956e-05,3.709202941062754e-06,2.0871647400366555e-05,2.060425620001005e-06,Unknown
0.12850961499999958,4.833244637975106e-06,7.780828105873794e-06,1.7700472215006264e-05,3.671608736601099e-06,2.091014960107463e-05,2.06011329778542e-06,Unknown
0.12902884599999886,4.823208512511591e-06,7.777472152385879e-06,1.7703255655940458e-05,3.6406498121543063e-06,2.093626976932264e-05,2.060358838405492e-06,Unknown
0.12954807699999904,4.821544274159063e-06,7.773752841066041e-06,1.7701929336051096e-05,3.619179234545776e-06,2.0946801180800592e-05,2.061707476796856e-06,Unknown
0.13006730799999922,4.82155790506858e-06,7.770622624627029e-06,1.769977513814065e-05,3.609001620713517e-06,2.0943633153694868e-05,2.064370510842204e-06,Unknown
0.1305865379999993,4.824553502584865e-06,7.768448703465604e-06,1.7697563743813946e-05,3.606088143579488e-06,2.0933372659571232e-05,2.06825541003865e-06,Unknown
0.13110576899999948,4.839396359914493e-06,7.767342801468088e-06,1.7694840763227143e-05,3.605970313150873e-06,2.0923303735098785e-05,2.073215374869454e-06,Unknown
0.13162499999999966,4.8592896517750055e-06,7.766905028700533e-06,1.7692024027460356e-05,3.60608077774412e-06,2.0917655893001308e-05,2.0790274558173674e-06,Unknown
0.13214423099999895,4.870517149471749e-06,7.767270719902334e-06,1.7691658959491842e-05,3.604205074667891e-06,2.091619733023101e-05,2.0852354104591675e-06,Unknown
0.13266346199999912,4.875035150480664e-06,7.770087030689545e-06,1.769595011117597e-05,3.597690237168031e-06,2.091635101971526e-05,2.091254150449277e-06,Unknown
0.13318269199999921,4.881717878623844e-06,7.776190442261717e-06,1.7703558785487187e-05,3.585802361919633e-06,2.091629911661765e-05,2.096649448923841e-06,Unknown
0.1337019229999994,4.90694324763345e-06,7.784051856327663e-06,1.77115199277043e-05,3.5731686828594463e-06,2.091644117677957e-05,2.101252691267794e-06,Unknown
0.13422115399999957,4.962502968940657e-06,7.791921257811797e-06,1.7718702610091068e-05,3.5660626518338165e-06,2.091725638615176e-05,2.105088528063788e-06,Unknown
0.13474038499999885,5.031418029522933e-06,7.799492984244779e-06,1.7724900435152274e-05,3.565391318361315e-06,2.0918175360411293e-05,2.1082509711002297e-06,Unknown
0.13525961499999894,5.089658115891267e-06,7.806572287738143e-06,1.7728902220490866e-05,3.567493424481314e-06,2.092035307803791e-05,2.1107543880445344e-06,Unknown
0.13577884599999912,5.133835218072106e-06,7.810517937244019e-06,1.7729567852005864e-05,3.567866640746512e-06,2.0925759188793947e-05,2.112519087359429e-06,Unknown
0.1362980769999993,5.173787783183025e-06,7.807164678982112e-06,1.7728610732498472e-05,3.5621187648202697e-06,2.093499183051256e-05,2.113568981978501e-06,Unknown
0.13681730799999947,5.218402247540173e-06,7.796974482435251e-06,1.7729396404037947e-05,3.5519424974334447e-06,2.094900351068588e-05,2.11410682502346e-06,Unknown
0.13733653799999956,5.271184560810575e-06,7.78589537610519e-06,1.773321671104171e-05,3.546169659203782e-06,2.0970197112975428e-05,2.1143414114413565e-06,Unknown
0.13785576899999885,5.3239262580637775e-06,7.777779496090773e-06,1.7738392076603834e-05,3.5476072828978868e-06,2.1001941900624087e-05,2.114385326885355e-06,Unknown
0.13837499999999903,5.3588662471342044e-06,7.771097927773614e-06,1.7740723427194806e-05,3.553511460007273e-06,2.1045952395029173e-05,2.114337545781715e-06,Unknown
0.1388942309999992,5.37003040995288e-06,7.762279587833069e-06,1.773788360956194e-05,3.56835484337973e-06,2.110004017341122e-05,2.1143587508505974e-06,Unknown
0.13941346199999938,5.36451038105835e-06,7.749039948545473e-06,1.773364674862304e-05,3.59184875536336e-06,2.1160581476927112e-05,2.114586135880477e-06,Unknown
0.13993269199999947,5.345681579144384e-06,7.733133629280096e-06,1.7731939156830978e-05,3.612405621608173e-06,2.1225337620074504e-05,2.115002608443666e-06,Unknown
0.14045192299999965,5.3238512955617285e-06,7.720662131835252e-06,1.7732062247166794e-05,3.6223501060208017e-06,2.129195206370621e-05,2.1154464157004654e-06,Unknown
0.14097115399999893,5.313589298137732e-06,7.71569306402788e-06,1.773231887131911e-05,3.61683738966842e-06,2.1354721154432644e-05,2.1157767805195694e-06,Unknown
0.1414903849999991,5.312422051296706e-06,7.715721506420486e-06,1.773149597720961e-05,3.603588724731437e-06,2.1406020999148287e-05,2.1161465790421365e-06,Unknown
0.1420096149999992,5.312390881495177e-06,7.716773320236872e-06,1.772848350119003e-05,3.602906017190716e-06,2.144255909755373e-05,2.1171869037022054e-06,Unknown
0.14252884599999938,5.3134558205015065e-06,7.717903194263026e-06,1.7723389288777368e-05,3.6186523780423673e-06,2.146606953062416e-05,2.1198186413635463e-06,Unknown
0.14304807699999955,5.316292616195108e-06,7.719478840225943e-06,1.7718018288366137e-05,3.64751790999744e-06,2.1477090638995148e-05,2.1245132868306364e-06,Unknown
0.14356730799999884,5.320078544538565e-06,7.721642662596406e-06,1.771457909576228e-05,3.6854903911649496e-06,2.1472925801145084e-05,2.130409419641432e-06,Unknown
0.14408653799999893,5.3244862829953234e-06,7.724403793078946e-06,1.771516464764779e-05,3.712971565770859e-06,2.1454336424603384e-05,2.1356294356462502e-06,Unknown
0.1446057689999991,5.328455612895807e-06,7.727699007097082e-06,1.772177892128474e-05,3.711457328063693e-06,2.143036397814764e-05,2.1389880464715863e-06,Unknown
0.14512499999999928,5.332107264820969e-06,7.731335518163245e-06,1.7734705857166428e-05,3.679097527703795e-06,2.141091075331889e-05,2.1408901289764133e-06,Unknown
0.14564423099999946,5.334627228172768e-06,7.733483352261614e-06,1.7751622526564342e-05,3.624689212162756e-06,2.1397231871217375e-05,2.142387878484154e-06,Unknown
0.14616346199999963,5.331662317746657e-06,7.733662751625246e-06,1.77687974260735e-05,3.5639026764112208e-06,2.1383970854550492e-05,2.1439896104002573e-06,Unknown
0.14668269199999884,5.321621597314815e-06,7.73376156665038e-06,1.778365207747045e-05,3.512393427550028e-06,2.1369409128453865e-05,2.145457612150014e-06,Unknown
0.147201922999999,5.308692353109561e-06,7.732855671974128e-06,1.7795447483350784e-05,3.4682225087916315e-06,2.136155031575261e-05,2.1464919618429224e-06,Unknown
0.1477211539999992,5.2977002045977465e-06,7.729452995562956e-06,1.7804938258385012e-05,3.4178450688012056e-06,2.1361349075756884e-05,2.14730180585008e-06,Unknown
0.14824038499999936,5.290446211364185e-06,7.724782669358264e-06,1.781388938039735e-05,3.3573899668878287e-06,2.1329256536902017e-05,2.148350210019934e-06,Unknown
0.14875961499999946,5.285568946217199e-06,7.719873386880078e-06,1.7824288690068e-05,3.296794075453944e-06,2.1207638668696497e-05,2.14980732419486e-06,Unknown
0.14927884599999963,5.28044460437642e-06,7.714437985760964e-06,1.7836356045404656e-05,3.257383198911028e-06,2.0994866171784548e-05,2.151370856802726e-06,Unknown
0.14979807699999892,5.274345789316127e-06,7.708116473873547e-06,1.7846049935262114e-05,3.2464146048997218e-06,2.074531155029296e-05,2.152560012877026e-06,Unknown
0.1503173079999991,5.268673077109149e-06,7.700169301766031e-06,1.7850272990986455e-05,3.2471861763343754e-06,2.050245727790812e-05,2.1530846056386088e-06,Unknown
0.1508365379999992,5.264702159529038e-06,7.689680044495585e-06,1.785046480460922e-05,3.249865514627771e-06,2.027469382577765e-05,2.1528998199230046e-06,Unknown
0.15135576899999936,5.262819521322343e-06,7.676642975494664e-06,1.7847211418793676e-05,3.253534816193544e-06,2.0056652871441187e-05,2.1520735438328527e-06,Unknown
0.15187499999999954,5.266034678581837e-06,7.662527484091268e-06,1.7838533846361778e-05,3.256878864585976e-06,1.984397811045796e-05,2.15072209026074e-06,Unknown
0.15239423099999883,5.279489508722524e-06,7.649418025224393e-06,1.782385518375101e-05,3.2609090936556914e-06,1.9631644092969686e-05,2.149000866683437e-06,Unknown
0.152913461999999,5.30107967934106e-06,7.637474613940393e-06,1.7807641539459896e-05,3.263005888607725e-06,1.9415990084665583e-05,2.147068490660041e-06,Unknown
0.1534326919999991,5.320902521972541e-06,7.62373478796793e-06,1.7796537192815994e-05,3.26259113047882e-06,1.920413454994443e-05,2.1449726505893934e-06,Unknown
0.15395192299999927,5.335231148214357e-06,7.602887993902141e-06,1.7792132268721466e-05,3.262588665720971e-06,1.901699742812468e-05,2.142551081703943e-06,Unknown
0.15447115399999944,5.349932086521937e-06,7.57100720348822e-06,1.779072476510721e-05,3.2620017174844724e-06,1.887673475626659e-05,2.139682142806426e-06,Unknown
0.15499038499999962,5.369073174750235e-06,7.532095032385718e-06,1.778977116108574e-05,3.263749741926668e-06,1.8791552739528505e-05,2.1365883999336776e-06,Unknown
0.15550961499999882,5.397483058557078e-06,7.4942791075712146e-06,1.778998426682794e-05,3.268527930575129e-06,1.8755381971041828e-05,2.1335587228324565e-06,Unknown
0.156028845999999,5.442632507673985e-06,7.459758567531905e-06,1.779183540984039e-05,3.270708187517734e-06,1.875128023262583e-05,2.130502548536586e-06,Unknown
0.15654807699999918,5.496676173319085e-06,7.426754015759191e-06,1.7793734718619573e-05,3.2704679869430822e-06,1.8755278019870183e-05,2.1271253018140835e-06,Unknown
0.15706730799999935,5.538743784967616e-06,7.395969070005574e-06,1.7794454074095255e-05,3.2709707389031807e-06,1.8751041158124334e-05,2.123555061866537e-06,Unknown
0.15758653799999944,5.559381258605546e-06,7.370303993591949e-06,1.7794637156644153e-05,3.2724793440904733e-06,1.8736168801980547e-05,2.1203945577212622e-06,Unknown
0.15810576899999962,5.562983788220878e-06,7.349907172417302e-06,1.7794641146413334e-05,3.272963076526804e-06,1.870907660171946e-05,2.117964996433362e-06,Unknown
0.1586249999999989,5.5571354372855e-06,7.327394830148514e-06,1.7793766512780115e-05,3.2716784328616964e-06,1.8665369965279368e-05,2.115848497433864e-06,Unknown
0.15914423099999908,5.5502414238585e-06,7.292236742636453e-06,1.7791763957982835e-05,3.268685466866588e-06,1.861183416760508e-05,2.113334014940198e-06,Unknown
0.15966346199999926,5.546253429015297e-06,7.247103967104403e-06,1.778857019827661e-05,3.2637931333303542e-06,1.8569181831658903e-05,2.1103696564247347e-06,Unknown
0.16018269199999935,5.545450166633016e-06,7.211060406388854e-06,1.778347082506823e-05,3.255328115646125e-06,1.854977572810378e-05,2.1080572852544853e-06,Unknown
0.16070192299999952,5.550089849849135e-06,7.195887656849829e-06,1.7775854664117213e-05,3.242762722954806e-06,1.8543644269591065e-05,2.1076879490246507e-06,Unknown
0.1612211539999988,5.561696525103014e-06,7.1934554952754905e-06,1.7765205221572968e-05,3.2385473802821428e-06,1.8534708076049436e-05,2.109334145142295e-06,Unknown
0.161740384999999,5.580382976681939e-06,7.19315059004621e-06,1.7749742614722393e-05,3.2553215484381365e-06,1.8513522174839278e-05,2.111831559597772e-06,Unknown
0.16225961499999908,5.6131609739455e-06,7.192799077847489e-06,1.7727315215294064e-05,3.281289805815024e-06,1.8474310159524487e-05,2.1139299962670404e-06,Unknown
0.16277884599999926,5.668351576489003e-06,7.192835048786034e-06,1.7699428521001392e-05,3.29447171606024e-06,1.841244010535572e-05,2.115179497678177e-06,Unknown
0.16329807699999943,5.732458528442574e-06,7.1931181462310005e-06,1.767287088095815e-05,3.294997001924999e-06,1.8321111907811315e-05,2.115879156519724e-06,Unknown
0.1638173079999996,5.77980243881856e-06,7.1929730871743786e-06,1.7653978443002474e-05,3.298449337996399e-06,1.819024515690588e-05,2.11660188076825e-06,Unknown
0.1643365379999988,5.807076962252954e-06,7.189851668980034e-06,1.7642658970011592e-05,3.307734137984028e-06,1.801482286414144e-05,2.117778836765556e-06,Unknown
0.164855768999999,5.826665856650604e-06,7.179320496411174e-06,1.7635001517028304e-05,3.315474519584417e-06,1.780593878435309e-05,2.119297076841842e-06,Unknown
0.16537499999999916,5.841548346849381e-06,7.160135999882917e-06,1.7627614033894832e-05,3.3190603790118424e-06,1.7591225350271035e-05,2.1204542407818096e-06,Unknown
0.16589423099999934,5.845871654537792e-06,7.136294080754248e-06,1.761870293262054e-05,3.3200813696861025e-06,1.7399178124627157e-05,2.120633187872689e-06,Unknown
0.1664134619999995,5.83571711257637e-06,7.112651751840353e-06,1.760924445926881e-05,3.318609741939744e-06,1.7242640829695365e-05,2.119856012523835e-06,Unknown
0.1669326919999996,5.816317379419196e-06,7.090934241806829e-06,1.7600917306003635e-05,3.314718651707254e-06,1.711820511185034e-05,2.118484160388703e-06,Unknown
0.1674519229999989,5.79703147809855e-06,7.0685854013126765e-06,1.7591653112182203e-05,3.312812136970355e-06,1.7014669231543842e-05,2.116722947011964e-06,Unknown
0.16797115399999907,5.782717112846631e-06,7.041168271393828e-06,1.7577353328671857e-05,3.314454077490757e-06,1.6920226139722535e-05,2.1146775036605435e-06,Unknown
0.16849038499999924,5.77345841240417e-06,7.0028060999928525e-06,1.7557614225065624e-05,3.314868545021316e-06,1.6827737090540134e-05,2.1127546275822307e-06,Unknown
0.16900961499999934,5.76804413566754e-06,6.942027863291162e-06,1.7535148112768822e-05,3.3144051749637726e-06,1.6735839738721557e-05,2.111602690011524e-06,Unknown
0.1695288459999995,5.763482321337711e-06,6.842034628952251e-06,1.7509709727927085e-05,3.3161864355090924e-06,1.664724369500707e-05,2.111611392844384e-06,Unknown
0.1700480769999997,5.759543486072971e-06,6.692934240050701e-06,1.747716242600272e-05,3.3203749635338475e-06,1.6566666246156535e-05,2.112744549940938e-06,Unknown
0.17056730799999897,5.765897173041847e-06,6.50947466121036e-06,1.743503562397962e-05,3.328856040108301e-06,1.649724239231824e-05,2.114659095305633e-06,Unknown
0.17108653799999907,5.781391699870498e-06,6.329066428273676e-06,1.738691587032501e-05,3.3370750973597023e-06,1.6439275111561587e-05,2.116702673522983e-06,Unknown
0.17160576899999924,5.7888226844176026e-06,6.180125552066358e-06,1.734042295271801e-05,3.3389571720451805e-06,1.6393176597620632e-05,2.118120016008106e-06,Unknown
0.17212499999999942,5.785394518925554e-06,6.060466502945539e-06,1.7299171093843237e-05,3.338988404810577e-06,1.6360657730060265e-05,2.11873340687566e-06,Unknown
0.1726442309999996,5.781667415567222e-06,5.950265678608975e-06,1.7258600437676355e-05,3.3380339713343977e-06,1.6341153798743924e-05,2.1191991738500736e-06,Unknown
0.17316346199999888,5.781218599386409e-06,5.834514020436451e-06,1.7211627565838036e-05,3.331276878273016e-06,1.632992370156036e-05,2.120145543144164e-06,Unknown
0.17368269199999897,5.78106910956045e-06,5.716618923025726e-06,1.71570384431266e-05,3.312949471427136e-06,1.6321919535031748e-05,2.121201857601978e-06,Unknown
0.17420192299999915,5.77864466876649e-06,5.612479027663313e-06,1.7105716310659076e-05,3.2834103227159247e-06,1.631616639026017e-05,2.121301796572167e-06,Unknown
0.17472115399999932,5.774949505008988e-06,5.530951104204509e-06,1.7071779275670963e-05,3.260804226360578e-06,1.6314258027301585e-05,2.120019342119174e-06,Unknown
0.1752403849999995,5.773243433896684e-06,5.469905770524467e-06,1.7054998814474925e-05,3.256745447269199e-06,1.6314266666638675e-05,2.1182118754413176e-06,Unknown
0.1757596149999996,5.77397944561096e-06,5.426925603835258e-06,1.7044035405754037e-05,3.263302258892788e-06,1.6311036489115562e-05,2.117063299908871e-06,Unknown
0.17627884599999888,5.7749346630385184e-06,5.401396447326445e-06,1.7029123685901052e-05,3.2714562551192552e-06,1.630088196256958e-05,2.116863293841117e-06,Unknown
0.17679807699999905,5.775532954273792e-06,5.389744880683947e-06,1.7006674927459064e-05,3.273720964764609e-06,1.628194276146943e-05,2.116949793441316e-06,Unknown
0.17731730799999923,5.776435925833676e-06,5.386136789910855e-06,1.6981409705315385e-05,3.271174409056998e-06,1.6253572898932377e-05,2.116546178949352e-06,Unknown
0.17783653799999932,5.779232133189203e-06,5.385521285427772e-06,1.696053065527894e-05,3.274104151906656e-06,1.6216757850317517e-05,2.115619580952505e-06,Unknown
0.1783557689999995,5.786038555813906e-06,5.385538212677121e-06,1.6944276271006972e-05,3.281737952608985e-06,1.6172490865542407e-05,2.114660428750468e-06,Unknown
0.17887499999999967,5.795253220894527e-06,5.384247372344121e-06,1.692867617382198e-05,3.2848684748423936e-06,1.6120598755468913e-05,2.113761433038519e-06,Unknown
0.17939423099999896,5.801113882449712e-06,5.379850588099753e-06,1.6914634152658e-05,3.274942497280464e-06,1.6062812234753973e-05,2.1124456328278835e-06,Unknown
0.17991346199999914,5.801107988651795e-06,5.377579535308466e-06,1.6907661928086503e-05,3.251933635121928e-06,1.600519911931755e-05,2.110039318934987e-06,Unknown
0.18043269199999923,5.799715919746079e-06,5.385150103798566e-06,1.690726372761738e-05,3.239438480713782e-06,1.5952939209899505e-05,2.106098962372431e-06,Unknown
0.1809519229999994,5.800595965361712e-06,5.399515287152569e-06,1.6905170422650498e-05,3.251631030223983e-06,1.5903770410489242e-05,2.1008920481616177e-06,Unknown
0.18147115399999958,5.802694951128976e-06,5.408351144700625e-06,1.6897478156744198e-05,3.2640321024240397e-06,1.584930669679524e-05,2.095488955091481e-06,Unknown
0.18199038499999887,5.803323543016296e-06,5.404266869519025e-06,1.688725979774704e-05,3.2639474693004544e-06,1.5781175435101427e-05,2.091081781690096e-06,Unknown
0.18250961499999896,5.801120768178263e-06,5.39112966810841e-06,1.6875634157287904e-05,3.2639053276433687e-06,1.569685722411189e-05,2.0882867508842223e-06,Unknown
0.18302884599999913,5.796113903566077e-06,5.376896019606691e-06,1.6857645255773016e-05,3.259881398951793e-06,1.5600120561262237e-05,2.0870352319160827e-06,Unknown
0.1835480769999993,5.788002133571013e-06,5.365267583487416e-06,1.6823283349946548e-05,3.2516175553900898e-06,1.5496637699985115e-05,2.08685640811174e-06,Unknown
0.18406730799999949,5.7775358808143306e-06,5.35456151111075e-06,1.6765483471125933e-05,3.253363587919675e-06,1.5392665876782493e-05,2.0872882415946065e-06,Unknown
0.18458653799999958,5.7654351946215226e-06,5.342008637679498e-06,1.6690486935275604e-05,3.2607015277777407e-06,1.5297032695919454e-05,2.0879771716792637e-06,Unknown
0.18510576899999887,5.752083479494488e-06,5.324601507948267e-06,1.6612368812864126e-05,3.268089606442834e-06,1.5217911022284004e-05,2.0885166869582524e-06,Unknown
0.18562499999999904,5.738027262919057e-06,5.301645633241883e-06,1.653994890874174e-05,3.2793115399131457e-06,1.5154221319290606e-05,2.087818517302532e-06,Unknown
0.18614423099999922,5.724725093082815e-06,5.277717298525308e-06,1.6473643643735006e-05,3.287863043825741e-06,1.50942795956263e-05,2.083672192684279e-06,Unknown
0.1866634619999994,5.710964755104763e-06,5.251126234783232e-06,1.640881847722447e-05,3.2904684890225823e-06,1.5023718655467714e-05,2.07440769924552e-06,Unknown
0.18718269199999948,5.6916754211876014e-06,5.214018328276394e-06,1.6337687836765846e-05,3.2944135076498387e-06,1.493777089756405e-05,2.061304603385761e-06,Unknown
0.18770192299999966,5.671535711310747e-06,5.166294401567334e-06,1.6249923874433448e-05,3.3098892484696487e-06,1.4850168809405345e-05,2.047620428973725e-06,Unknown
0.18822115399999895,5.658187755924696e-06,5.111505978722032e-06,1.6136591319449907e-05,3.3474219546938595e-06,1.4778975459532449e-05,2.035425962331899e-06,Unknown
0.18874038499999912,5.651607875417267e-06,5.053530469629544e-06,1.5997798816773263e-05,3.39029138705952e-06,1.4725252937430075e-05,2.024783303714724e-06,Unknown
0.18925961499999922,5.658487249563774e-06,5.000158579242256e-06,1.58458339473476e-05,3.4045358108778152e-06,1.4676222424053073e-05,2.0150313183413946e-06,Unknown
0.1897788459999994,5.6857127586226695e-06,4.954565787410143e-06,1.569616067319481e-05,3.392308558249451e-06,1.4619776929022953e-05,2.0057205083052084e-06,Unknown
0.19029807699999957,5.7227995114278695e-06,4.910840398422519e-06,1.5554787770202407e-05,3.380937036286298e-06,1.455545890776835e-05,1.996765554064586e-06,Unknown
0.19081730799999885,5.754071193471631e-06,4.864028759957623e-06,1.5417177986562027e-05,3.3824674956277816e-06,1.4495921953606658e-05,1.988434823587381e-06,Unknown
0.19133653799999895,5.775882717536343e-06,4.818840014035535e-06,1.527753172327448e-05,3.3878293192213167e-06,1.4452868078065336e-05,1.9812698510852107e-06,Unknown
0.19185576899999912,5.79393754188974e-06,4.779148383507475e-06,1.5138407662473822e-05,3.3745912294841828e-06,1.4426071664347854e-05,1.9757985688808487e-06,Unknown
0.1923749999999993,5.813040882377192e-06,4.731779012616109e-06,1.5012261936245436e-05,3.342106032792916e-06,1.4408564871080314e-05,1.9723197618905253e-06,Unknown
0.19289423099999947,5.830646426739474e-06,4.653374415489159e-06,1.4909505097081796e-05,3.321052081289458e-06,1.4394905537654004e-05,1.970931290637271e-06,Unknown
0.19341346199999965,5.841335548998043e-06,4.540635280344169e-06,1.4827038471646786e-05,3.318245503580341e-06,1.438319682261639e-05,1.971550644798934e-06,Unknown
0.19393269199999885,5.845236690959878e-06,4.431804626808432e-06,1.4753058859558563e-05,3.3167594466088018e-06,1.4373494491088284e-05,1.9736692831493763e-06,Unknown
0.19445192299999903,5.845510105569626e-06,4.364115929147368e-06,1.468046058940636e-05,3.3113342814761343e-06,1.4365653732085842e-05,1.9761793591454483e-06,Unknown
0.1949711539999992,5.844758660952448e-06,4.333186275097965e-06,1.4615669773721522e-05,3.2941883960696346e-06,1.435868808730805e-05,1.9779101089325345e-06,Unknown
0.19549038499999938,5.844672221688959e-06,4.321118824391217e-06,1.4571532238631098e-05,3.264568152478997e-06,1.4352403599709848e-05,1.978443779123784e-06,Unknown
0.19600961499999947,5.843772895936184e-06,4.317141731104537e-06,1.454988584104382e-05,3.2454170456980887e-06,1.4348497153991456e-05,1.978098124630534e-06,Unknown
0.19652884599999965,5.837755357477987e-06,4.315908797347417e-06,1.4540276536693756e-05,3.252052896526488e-06,1.4348628611500767e-05,1.977239744825888e-06,Unknown
0.19704807699999893,5.824025755723752e-06,4.315666166284761e-06,1.4532683245733212e-05,3.274486038846719e-06,1.435173412000116e-05,1.975935415520778e-06,Unknown
0.1975673079999991,5.806537522881605e-06,4.3156229593953134e-06,1.45237510306883e-05,3.2962065319753965e-06,1.435412687800035e-05,1.9741443763896037e-06,Unknown
0.1980865379999992,5.792869482515182e-06,4.315935333821814e-06,1.4516149305015094e-05,3.310126001191206e-06,1.4352415098845597e-05,1.9720053623316643e-06,Unknown
0.19860576899999938,5.785473278264738e-06,4.315503551186918e-06,1.4514820667684212e-05,3.3192219707696978e-06,1.434505471168425e-05,1.9696953511124323e-06,Unknown
0.19912499999999955,5.781312936343062e-06,4.310966749229956e-06,1.4521081582822233e-05,3.3296988495111035e-06,1.4331341112112044e-05,1.967046120696677e-06,Unknown
0.19964423099999884,5.778240050118172e-06,4.30211013808518e-06,1.4531527314100708e-05,3.344893845543352e-06,1.4312311950316186e-05,1.9637599677364785e-06,Unknown
0.20016346199999902,5.776683836603207e-06,4.296046584273689e-06,1.454184425352464e-05,3.36088494565994e-06,1.4290853539661188e-05,1.9600713418627803e-06,Unknown
0.2006826919999991,5.775745174907328e-06,4.300037978649387e-06,1.454863444002863e-05,3.368989424256312e-06,1.4268234608119102e-05,1.956785953287181e-06,Unknown
0.20120192299999928,5.7744335772720605e-06,4.311351982070122e-06,1.4550240186895436e-05,3.368620133381727e-06,1.4243724331410678e-05,1.954364229334776e-06,Unknown
0.20172115399999946,5.777659598450798e-06,4.32227002256211e-06,1.454785981625411e-05,3.367863519719481e-06,1.4217393124351175e-05,1.951827450308437e-06,Unknown
0.20224038499999963,5.789359540262541e-06,4.329083311294296e-06,1.4544062165046346e-05,3.3694048475286525e-06,1.4188135794179672e-05,1.946945747910261e-06,Unknown
0.20275961499999884,5.806113766132699e-06,4.332919875361191e-06,1.45384849816962e-05,3.389117235405979e-06,1.4145813357604808e-05,1.9382213473452104e-06,Unknown
0.203278845999999,5.826121565095135e-06,4.339531750961804e-06,1.4528943713347469e-05,3.4657363121153817e-06,1.4070271623214817e-05,1.926375528938153e-06,Unknown
0.2037980769999992,5.851416654486292e-06,4.351803824531227e-06,1.451611106376851e-05,3.580745391062996e-06,1.3942914707940656e-05,1.9134863157630467e-06,Unknown
0.20431730799999936,5.878832267994354e-06,4.367876960800192e-06,1.450132175433251e-05,3.648087128741188e-06,1.3760616847168785e-05,1.9012698807226096e-06,Unknown
0.20483653799999946,5.900019236041857e-06,4.387524533684867e-06,1.4484042195342796e-05,3.6473831358070855e-06,1.3539996957538615e-05,1.8904374699929532e-06,Unknown
0.20535576899999963,5.91408525937072e-06,4.412662606975664e-06,1.4464487912484413e-05,3.638107274328805e-06,1.3304849132514965e-05,1.8812470399571315e-06,Unknown
0.20587499999999892,5.92739298319083e-06,4.4461415136301135e-06,1.4444570604107942e-05,3.645714045567012e-06,1.307056418004312e-05,1.874083173605996e-06,Unknown
0.2063942309999991,5.941180234427645e-06,4.48977372783521e-06,1.442642156478636e-05,3.656643909369983e-06,1.2843998814068531e-05,1.8692990325074845e-06,Unknown
0.20691346199999927,5.954831830805183e-06,4.5396286889681015e-06,1.4411428101382084e-05,3.664319523077693e-06,1.2632464971517686e-05,1.8667263245578451e-06,Unknown
0.20743269199999936,5.972865941161063e-06,4.585184479115635e-06,1.4399064524279844e-05,3.661219530955572e-06,1.2449096766901304e-05,1.8655495291082345e-06,Unknown
0.20795192299999954,6.000533782566108e-06,4.616131200824154e-06,1.4388550961117048e-05,3.6462208484908142e-06,1.2309835012143028e-05,1.864888304391488e-06,Unknown
0.20847115399999883,6.037950687114253e-06,4.63248294239559e-06,1.4379901024475045e-05,3.630949558596629e-06,1.2221689209938524e-05,1.8644367143780783e-06,Unknown
0.208990384999999,6.076054350993296e-06,4.642304442613731e-06,1.4372834134298489e-05,3.6205576515268824e-06,1.2174690037604903e-05,1.8641352340349668e-06,Unknown
0.2095096149999991,6.100023335574463e-06,4.652659491580591e-06,1.4367782864557756e-05,3.6101610916969342e-06,1.2149676508140684e-05,1.8634064734697887e-06,Unknown
0.21002884599999927,6.105141184255615e-06,4.6670578598679245e-06,1.436151422910592e-05,3.5956735067259025e-06,1.213055511641091e-05,1.8614920593481375e-06,Unknown
0.21054807699999945,6.101643122595776e-06,4.68513491019547e-06,1.4344765134043651e-05,3.582504701628233e-06,1.2107612313276793e-05,1.8584251686497711e-06,Unknown
0.21106730799999962,6.098577586954205e-06,4.7023505354427466e-06,1.4307102173864755e-05,3.5791569465360777e-06,1.208026707263452e-05,1.8550296748604488e-06,Unknown
0.21158653799999882,6.095986801279556e-06,4.709610611785933e-06,1.423303353648411e-05,3.581741164947964e-06,1.2057868741493051e-05,1.8522487933668848e-06,Unknown
0.212105768999999,6.092555591100438e-06,4.705552171245145e-06,1.4093038186629067e-05,3.5783930386459264e-06,1.2047659572912192e-05,1.8505436290111684e-06,Unknown
0.21262499999999918,6.088982863598699e-06,4.703031557934308e-06,1.3852475433029883e-05,3.563497480797893e-06,1.2046680989567995e-05,1.849690325824409e-06,Unknown
0.21314423099999935,6.085211270960092e-06,4.709803170328678e-06,1.3505749254301543e-05,3.5414109612110056e-06,1.2048251549961092e-05,1.8492681173434453e-06,Unknown
0.21366346199999953,6.081194795781762e-06,4.719255238010634e-06,1.3098067991640996e-05,3.521464581742094e-06,1.2048579449535438e-05,1.8490944511120903e-06,Unknown
0.21418269199999962,6.080398468205435e-06,4.7232519841532414e-06,1.2694171898912362e-05,3.5097367562352346e-06,1.2048111336273446e-05,1.8491256951363483e-06,Unknown
0.2147019229999989,6.087895681707753e-06,4.723093554757674e-06,1.2327613369282203e-05,3.507411275909179e-06,1.2048122788523897e-05,1.849365085343244e-06,Unknown
0.21522115399999908,6.103558953267067e-06,4.723656194647106e-06,1.199006744875696e-05,3.5125126517910594e-06,1.2046237722444544e-05,1.8498697684277704e-06,Unknown
0.21574038499999926,6.120541572753586e-06,4.724136921718871e-06,1.1657513055841764e-05,3.5192581560991407e-06,1.2040390090544803e-05,1.8506821296875976e-06,Unknown
0.21625961499999935,6.130322100926872e-06,4.72337992283085e-06,1.131988638147432e-05,3.5231427282651736e-06,1.2032695850355833e-05,1.8517217569374655e-06,Unknown
0.21677884599999953,6.13145005360113e-06,4.72240784260604e-06,1.0994506096363868e-05,3.5250599810503285e-06,1.2024869700831245e-05,1.8525580152912052e-06,Unknown
0.2172980769999988,6.133149231480992e-06,4.719870454235159e-06,1.0707829872829182e-05,3.5278067736276724e-06,1.2015630547361513e-05,1.8524779561264537e-06,Unknown
0.217817307999999,6.14194868230568e-06,4.712999732544274e-06,1.0466191152630452e-05,3.532595243542257e-06,1.2002705418920505e-05,1.851320890444806e-06,Unknown
0.21833653799999908,6.154218371538949e-06,4.69679723626956e-06,1.025849384410338e-05,3.53816165230824e-06,1.1986173748495004e-05,1.8498086903883803e-06,Unknown
0.21885576899999926,6.168656678133355e-06,4.665613232758647e-06,1.0079839031788845e-05,3.541944461235456e-06,1.196843431822228e-05,1.8486122786109592e-06,Unknown
0.21937499999999943,6.190158140271567e-06,4.62494172788045e-06,9.941641448092905e-06,3.541474200296645e-06,1.194931868256442e-05,1.8477569340587589e-06,Unknown
0.2198942309999996,6.224257755703367e-06,4.589507796037492e-06,9.8566321299592e-06,3.538913400651986e-06,1.1924951808410562e-05,1.846813977753273e-06,Unknown
0.2204134619999989,6.272202676990385e-06,4.564805545927679e-06,9.81941149533476e-06,3.537874829729688e-06,1.1893214077814487e-05,1.8451581683319317e-06,Unknown
0.220932691999999,6.320934927424244e-06,4.546539863959187e-06,9.81127971018911e-06,3.537823558843638e-06,1.185939593014689e-05,1.8422197106655308e-06,Unknown
0.22145192299999916,6.354606589568998e-06,4.5334334783652704e-06,9.812715347437453e-06,3.540322971334647e-06,1.1829887343430983e-05,1.837744936134828e-06,Unknown
0.22197115399999934,6.37516416129765e-06,4.530017860730581e-06,9.806160349827348e-06,3.5460848597194537e-06,1.1803313261928467e-05,1.831933642091332e-06,Unknown
0.2224903849999995,6.392353759197704e-06,4.533566146658439e-06,9.77695992796738e-06,3.5504632107608942e-06,1.1775316381167734e-05,1.825411519561495e-06,Unknown
0.2230096149999996,6.409130179322408e-06,4.533035630645184e-06,9.715919608241967e-06,3.550447785629903e-06,1.1744207850494852e-05,1.8189638786102969e-06,Unknown
0.2235288459999989,6.418373820845165e-06,4.520797310845631e-06,9.62070393343462e-06,3.548698760476114e-06,1.1712259418815836e-05,1.813138457073729e-06,Unknown
0.22404807699999907,6.413780916148637e-06,4.487320262927304e-06,9.492353601735166e-06,3.5486924668193528e-06,1.1683874077381924e-05,1.8081774806932092e-06,Unknown
0.22456730799999924,6.4037996397777e-06,4.432209309711043e-06,9.329370237731967e-06,3.549030414572268e-06,1.1657446290327345e-05,1.8043470887792025e-06,Unknown
0.22508653799999934,6.3985298101619e-06,4.374819460621202e-06,9.127055972954264e-06,3.54757217319536e-06,1.1624362982501413e-05,1.8020477736728536e-06,Unknown
0.2256057689999995,6.397077684938169e-06,4.331163238627207e-06,8.886085511861412e-06,3.54720068853177e-06,1.1583569038088446e-05,1.8014012702277737e-06,Unknown
0.2261249999999997,6.395995614828972e-06,4.301866960564667e-06,8.623613217819978e-06,3.549248656301268e-06,1.154795527501118e-05,1.8020492266138271e-06,Unknown
0.22664423099999897,6.39064497360937e-06,4.285827418520038e-06,8.36819956854409e-06,3.5498086410417462e-06,1.152550045840128e-05,1.8036428445204149e-06,Unknown
0.22716346199999915,6.373307220670965e-06,4.290616415023847e-06,8.136056220920046e-06,3.550127491354763e-06,1.150845945532035e-05,1.8061882787476328e-06,Unknown
0.22768269199999924,6.34608605656488e-06,4.314823623888485e-06,7.92038879160857e-06,3.550233723309475e-06,1.148705091025199e-05,1.8096313176591848e-06,Unknown
0.22820192299999942,6.321200884942902e-06,4.338158763130522e-06,7.70854951271157e-06,3.548500232693686e-06,1.146182840880215e-05,1.8132233291918628e-06,Unknown
0.2287211539999996,6.303936426833074e-06,4.349195837168639e-06,7.501757083080927e-06,3.554059750670866e-06,1.1442958440959485e-05,1.8158528399529768e-06,Unknown
0.22924038499999888,6.291161789535365e-06,4.353543538793712e-06,7.314970009237226e-06,3.560708332640981e-06,1.143582964214274e-05,1.8170686613022612e-06,Unknown
0.22975961499999897,6.282068913441081e-06,4.357485954819394e-06,7.158966399962237e-06,3.5578061581065302e-06,1.1432195667231165e-05,1.817168933331846e-06,Unknown
0.23027884599999915,6.281934488719621e-06,4.362367590667216e-06,7.030722979944015e-06,3.5563601436776474e-06,1.14237815035618e-05,1.8166046485773584e-06,Unknown
0.23079807699999932,6.293461322652425e-06,4.363509300642458e-06,6.92597546872022e-06,3.5555330589112782e-06,1.1411887805429814e-05,1.8157909649709417e-06,Unknown
0.2313173079999995,6.309324247349649e-06,4.358668872686052e-06,6.851829242593153e-06,3.552689296098458e-06,1.1403400103489911e-05,1.8152130027365849e-06,Unknown
0.2318365379999996,6.320452786710018e-06,4.352481117104972e-06,6.816498120187973e-06,3.557229231855912e-06,1.1403165566048614e-05,1.81525176440658e-06,Unknown
0.23235576899999888,6.324868145603591e-06,4.346287352501929e-06,6.810267446931275e-06,3.5598572948863284e-06,1.1406784008186662e-05,1.815808647962392e-06,Unknown
0.23287499999999905,6.325721555882911e-06,4.338275725695459e-06,6.813112712347415e-06,3.5490210281717464e-06,1.1407248596997975e-05,1.8163087747673705e-06,Unknown
0.23339423099999923,6.326546375964626e-06,4.327471714568717e-06,6.814475962364773e-06,3.5297867093129e-06,1.1402152177204976e-05,1.8161463375541564e-06,Unknown
0.2339134619999994,6.327127451757944e-06,4.314218653263437e-06,6.813945218536873e-06,3.5094064191639486e-06,1.1393380560738422e-05,1.8151475467244663e-06,Unknown
0.2344326919999995,6.324260010656593e-06,4.302476784060881e-06,6.813652854884574e-06,3.4924451755085326e-06,1.1384798356867684e-05,1.8136653626225968e-06,Unknown
0.23495192299999967,6.318605702650269e-06,4.29589471696011e-06,6.814361962787435e-06,3.47900468295258e-06,1.1376440997145742e-05,1.8123375327634371e-06,Unknown
0.23547115399999896,6.313527768551637e-06,4.294248924624804e-06,6.815361173555843e-06,3.467065668975456e-06,1.1364596775288937e-05,1.8116551486700444e-06,Unknown
0.23599038499999914,6.309673104920607e-06,4.295696705718953e-06,6.817009266422346e-06,3.460248252875416e-06,1.134460539313596e-05,1.811658666809658e-06,Unknown
0.23650961499999923,6.306935822479309e-06,4.298839801743848e-06,6.819474731018938e-06,3.4601869384138897e-06,1.1316812759669504e-05,1.812162110005724e-06,Unknown
0.2370288459999994,6.30576399173423e-06,4.301911759209459e-06,6.822096596183563e-06,3.462761295533908e-06,1.1292149344134008e-05,1.813042274435631e-06,Unknown
0.23754807699999958,6.307265781081805e-06,4.303364077350491e-06,6.821604472605767e-06,3.46657107061338e-06,1.1283141826743448e-05,1.8140333437990717e-06,Unknown
0.23806730799999887,6.311152641687526e-06,4.303343784779403e-06,6.804983516691192e-06,3.474482803503201e-06,1.1291179257521184e-05,1.814491895262832e-06,Unknown
0.23858653799999896,6.313548082447168e-06,4.301519745550124e-06,6.763596243559646e-06,3.487959792851405e-06,1.1306892116182624e-05,1.813809239950254e-06,Unknown
0.23910576899999914,6.311725892975278e-06,4.296738041636382e-06,6.709113051442493e-06,3.498192841928478e-06,1.1321227981446197e-05,1.8120269947342957e-06,Unknown
0.2396249999999993,6.306953706106528e-06,4.289792405321059e-06,6.656878491938585e-06,3.4977924750581197e-06,1.1330930597707892e-05,1.809723254520197e-06,Unknown
0.2401442309999995,6.302004009073247e-06,4.284345765696144e-06,6.606880577276321e-06,3.4915074740661263e-06,1.133556869036474e-05,1.8074620761149057e-06,Unknown
0.24066346199999966,6.298933405156362e-06,4.281561405856306e-06,6.549863040261843e-06,3.481877009768801e-06,1.1336543338543057e-05,1.8056048497473237e-06,Unknown
0.24118269199999887,6.2980838246324825e-06,4.279140248261794e-06,6.484212232795094e-06,3.4685997756031424e-06,1.133648108181637e-05,1.8043649097737128e-06,Unknown
0.24170192299999904,6.298347344043637e-06,4.27527146298912e-06,6.419219311793603e-06,3.454891130820309e-06,1.1337787669293628e-05,1.80373709090697e-06,Unknown
0.24222115399999922,6.298549570789821e-06,4.274915686172534e-06,6.363027360740842e-06,3.445407471923844e-06,1.134211882658762e-05,1.803477540013812e-06,Unknown
0.2427403849999994,6.297674583970928e-06,4.290176759895966e-06,6.313450797581962e-06,3.4436098620243623e-06,1.1349022637801225e-05,1.803284960021699e-06,Unknown
0.24325961499999949,6.296279384819243e-06,4.321319468521567e-06,6.271026513851551e-06,3.4479831161694888e-06,1.135567336814436e-05,1.8030289110162648e-06,Unknown
0.24377884599999966,6.296046681430233e-06,4.353905249138275e-06,6.241572913253206e-06,3.454897609443504e-06,1.1358840947241864e-05,1.802891453236986e-06,Unknown
0.24429807699999895,6.2962691467201015e-06,4.375266802126795e-06,6.222613706469531e-06,3.460894921322825e-06,1.1358169446322632e-05,1.8031812327033048e-06,Unknown
0.24481730799999912,6.295519615034175e-06,4.383327515378374e-06,6.211695048399169e-06,3.4608435061304435e-06,1.1356026479248764e-05,1.8038548028256572e-06,Unknown
0.24533653799999922,6.293492847580921e-06,4.385105305908067e-06,6.20817105488991e-06,3.456578721811893e-06,1.1354368294652722e-05,1.8045229879073456e-06,Unknown
0.2458557689999994,6.287263628561129e-06,4.386138539930168e-06,6.2081674704196126e-06,3.457577573656176e-06,1.135357377886747e-05,1.8049575409443725e-06,Unknown
0.24637499999999957,6.268896312790025e-06,4.387224721513025e-06,6.206829681721003e-06,3.4629603773168804e-06,1.1353669183332583e-05,1.805194041553639e-06,Unknown
0.24689423099999885,6.229466791067895e-06,4.389090930216679e-06,6.201426179958431e-06,3.4654994971530545e-06,1.135365101321154e-05,1.8053545267401504e-06,Unknown
0.24741346199999903,6.171143814538323e-06,4.389631047051042e-06,6.192890059265343e-06,3.4645572915709214e-06,1.1347497670704645e-05,1.8055873263989397e-06,Unknown
0.24793269199999912,6.112347788771009e-06,4.386596280786799e-06,6.182525995883178e-06,3.465516711410353e-06,1.12713999381585e-05,1.8059610480014483e-06,Unknown
0.2484519229999993,6.070927613663297e-06,4.383543720786406e-06,6.173624554369645e-06,3.4746488676870543e-06,1.1002777700065244e-05,1.80649520244378e-06,Unknown
0.24897115399999947,6.051625567075449e-06,4.383158111730058e-06,6.16760431767095e-06,3.4836878784348376e-06,1.0546687122608705e-05,1.8072522750244856e-06,Unknown
0.24949038499999965,6.048346767301743e-06,4.383463757014036e-06,6.153751568670645e-06,3.484700097218964e-06,1.007554295248026e-05,1.808217376310179e-06,Unknown
0.25000961499999885,6.049313898174822e-06,4.383065705483142e-06,6.115703252961423e-06,3.4845935313609013e-06,9.701816349642974e-06,1.8092283839039069e-06,Sat
0.25052884599999903,6.047700981327184e-06,4.383187110347164e-06,6.050280514495728e-06,3.4836892994162155e-06,9.395981160781156e-06,1.8101377821721697e-06,Sat
0.2510480769999992,6.043699790078713e-06,4.382963494852147e-06,5.965639450105889e-06,3.480873626050512e-06,9.09905355302148e-06,1.810960830709212e-06,Sat
0.2515673079999994,6.037454299713463e-06,4.377791126427191e-06,5.865398662042178e-06,3.4807849433390075e-06,8.805215614454796e-06,1.8118057562786455e-06,Sat
0.25208653799999947,6.029752903820969e-06,4.3665573430462825e-06,5.7498507184450455e-06,3.483434728340812e-06,8.553103211713455e-06,1.8126999272500597e-06,Sat
0.25260576899999965,6.026934715696706e-06,4.353380646776364e-06,5.629752201473162e-06,3.4894486738165134e-06,8.362089431506331e-06,1.813487112921894e-06,Sat
0.25312499999999893,6.0315563035270345e-06,4.342310047779457e-06,5.530758875506325e-06,3.4990584889311483e-06,8.216076322647047e-06,1.8138731176861e-06,Sat
0.2536442309999991,6.036929695006626e-06,4.33569036299182e-06,5.470691262370782e-06,3.503785086300113e-06,8.098119767799539e-06,1.813547554691784e-06,Sat
0.2541634619999993,6.040048845511815e-06,4.334655520940653e-06,5.442437067372528e-06,3.49911773018112e-06,8.009571012054423e-06,1.812199031149339e-06,Sat
0.2546826919999994,6.042047593124114e-06,4.339167887262384e-06,5.430532326628185e-06,3.4933411023662425e-06,7.955827926020712e-06,1.809503984175628e-06,Sat
0.25520192299999955,6.04325319900866e-06,4.348305382947347e-06,5.423396556677675e-06,3.491608826566258e-06,7.929052003785489e-06,1.80534471902724e-06,Sat
0.25572115399999884,6.0394570774385695e-06,4.360014381755419e-06,5.417137173141696e-06,3.4914964161492456e-06,7.916429804938144e-06,1.7999035717499889e-06,Sat
0.256240384999999,6.0242238337818845e-06,4.370919940729789e-06,5.417566240488921e-06,3.492326554221747e-06,7.910727479977068e-06,1.7933999001565771e-06,Sat
0.2567596149999991,6.005195574999133e-06,4.378946229454333e-06,5.424016611340907e-06,3.493067157969861e-06,7.909414395443763e-06,1.7860593060791992e-06,Sat
0.2572788459999993,5.994271506235536e-06,4.3836312409020745e-06,5.421252265152927e-06,3.4928667752505506e-06,7.910309340238274e-06,1.7783667288303974e-06,Sat
0.25779807699999946,5.98904134631408e-06,4.3839020187820325e-06,5.399626868112993e-06,3.495022593531863e-06,7.910284318685639e-06,1.7709816376913771e-06,Sat
0.25831730799999963,5.978940195156942e-06,4.380979173381899e-06,5.36795547736072e-06,3.49761758964105e-06,7.909175196553676e-06,1.7643797051732212e-06,Sat
0.25883653799999884,5.948384863704849e-06,4.379264916430464e-06,5.33918026008002e-06,3.4968740632676137e-06,7.907740027795164e-06,1.7587850778595002e-06,Sat
0.259355768999999,5.891891924777538e-06,4.379013324688127e-06,5.31643767028052e-06,3.495674788933049e-06,7.907013497411207e-06,1.754277918571155e-06,Sat
0.2598749999999992,5.829203322174022e-06,4.374548812755461e-06,5.296066622177328e-06,3.4932640239605164e-06,7.915158215225599e-06,1.7508301089784605e-06,Sat
0.26039423099999937,5.781913462107158e-06,4.3621707070350935e-06,5.275025852630187e-06,3.490715599207345e-06,7.937342505251319e-06,1.7484482512359074e-06,Sat
0.26091346199999954,5.753295505000554e-06,4.345660802321236e-06,5.254651874937256e-06,3.493731565280942e-06,7.964452364584397e-06,1.7472653394823918e-06,Sat
0.26143269199999963,5.732328417608765e-06,4.334713410550764e-06,5.237005252567159e-06,3.499577490957682e-06,7.984541750717944e-06,1.74731322554717e-06,Sat
0.2619519229999989,5.701089375198252e-06,4.33466221327017e-06,5.219182799621217e-06,3.502752186047409e-06,7.990440882477934e-06,1.7482521533791762e-06,Sat
0.2624711539999991,5.652091458270554e-06,4.340349993301349e-06,5.194827706704043e-06,3.502994167056416e-06,7.972724405763056e-06,1.749491024234025e-06,Sat
0.26299038499999927,5.5999728895817015e-06,4.344681655209302e-06,5.160735457892228e-06,3.5017063137505e-06,7.91615717070381e-06,1.7505645565190165e-06,Sat
0.26350961499999936,5.569074218773317e-06,4.346076762537432e-06,5.122983555544037e-06,3.4966652226823733e-06,7.809291691396547e-06,1.751270098007247e-06,Sat
0.26402884599999954,5.571510505061875e-06,4.3461885443698255e-06,5.09371547134461e-06,3.481529288571959e-06,7.655619998332737e-06,1.7514474463054594e-06,Sat
0.2645480769999988,5.593533731893992e-06,4.345788171689765e-06,5.078285519543194e-06,3.453704515736295e-06,7.470076080079486e-06,1.7508156841606309e-06,Sat
0.265067307999999,5.608907079215951e-06,4.344318656397887e-06,5.0707135500142384e-06,3.42927409097961e-06,7.2650991761508545e-06,1.7491285860969148e-06,Sat
0.2655865379999991,5.605209442522623e-06,4.341054250679506e-06,5.064479309704622e-06,3.422607680992884e-06,7.046158015441803e-06,1.7464988205515278e-06,Sat
0.26610576899999927,5.594173572519315e-06,4.337328664009453e-06,5.0601952119706514e-06,3.423637668363822e-06,6.821499376795889e-06,1.743396262712385e-06,Sat
0.26662499999999945,5.5897371386196e-06,4.335611219107108e-06,5.061129950906517e-06,3.4216352549046737e-06,6.606246768354814e-06,1.7400917776289442e-06,Sat
0.2671442309999996,5.589751896266908e-06,4.334610107608591e-06,5.068274839066663e-06,3.414467635207556e-06,6.410055170806633e-06,1.7361685438667497e-06,Sat
0.2676634619999989,5.588522169304158e-06,4.332627083049489e-06,5.077280322282689e-06,3.402864153861196e-06,6.230183937773106e-06,1.7305018778092313e-06,Sat
0.268182691999999,5.585572073187341e-06,4.332722964936083e-06,5.076328574289653e-06,3.383830107382652e-06,6.063646709252575e-06,1.7219161629414377e-06,Sat
0.2687019229999992,5.584514168581623e-06,4.334976667553256e-06,5.053940905867251e-06,3.3543106409666423e-06,5.918932924624044e-06,1.7106548979563266e-06,Sat
0.26922115399999935,5.585462713562192e-06,4.334035435961659e-06,5.008027358949973e-06,3.3241540332287644e-06,5.80812934218555e-06,1.6989231534748214e-06,Sat
0.2697403849999995,5.583021531288282e-06,4.328384386293155e-06,4.9414401930914815e-06,3.306251020260957e-06,5.731426839253651e-06,1.689055210657348e-06,Sat
0.2702596149999996,5.577227496550565e-06,4.321448981001258e-06,4.856441629351991e-06,3.308137892806587e-06,5.680186706443165e-06,1.6816420707201996e-06,Sat
0.2707788459999989,5.579304757402804e-06,4.317754363707791e-06,4.759054101990505e-06,3.329743603181577e-06,5.656208423185996e-06,1.675797527159971e-06,Sat
0.2712980769999991,5.6017255854570175e-06,4.317431490948106e-06,4.658815620134482e-06,3.3560268846728248e-06,5.669116290396572e-06,1.670638653077015e-06,Sat
0.27181730799999926,5.637052052190042e-06,4.317645750224011e-06,4.567151057373382e-06,3.3690761316547645e-06,5.706589370499837e-06,1.6661022135075334e-06,Sat
0.27233653799999935,5.664074977223108e-06,4.320531003878114e-06,4.495067366235649e-06,3.371199911554256e-06,5.742979913594735e-06,1.662374835380225e-06,Sat
0.2728557689999995,5.675287716278494e-06,4.330612368033113e-06,4.435892033361229e-06,3.37147380736081e-06,5.773524555729334e-06,1.6592749252925012e-06,Sat
0.2733749999999988,5.676449407808835e-06,4.351462971502059e-06,4.36954467508304e-06,3.3664574778087586e-06,5.807628963149586e-06,1.6565357389517738e-06,Sat
0.273894230999999,5.674618146244652e-06,4.384902337207542e-06,4.2846071825260215e-06,3.359708618879358e-06,5.8485977621993055e-06,1.6541105921350205e-06,Sat
0.27441346199999916,5.6759792345020654e-06,4.424749413853724e-06,4.193709374823299e-06,3.3596867783099475e-06,5.890229378948088e-06,1.6521541559686026e-06,Sat
0.27493269199999926,5.681925876054501e-06,4.45839491672646e-06,4.129828425526623e-06,3.361423211824095e-06,5.921930711625216e-06,1.6509112882438883e-06,Sat
0.27545192299999943,5.687979364670119e-06,4.481058845089307e-06,4.107411664275972e-06,3.3603447592413736e-06,5.938357067091704e-06,1.6504831891720724e-06,Sat
0.2759711539999996,5.690067987111633e-06,4.497149930841944e-06,4.117385842032521e-06,3.3603225856955275e-06,5.943743686888531e-06,1.6507198314215577e-06,Sat
0.2764903849999989,5.68918304646356e-06,4.51078048792913e-06,4.15887417384437e-06,3.3658223043300075e-06,5.9453626483425536e-06,1.6513712042646054e-06,Sat
0.277009614999999,5.685460268009805e-06,4.522424798922083e-06,4.237767306292806e-06,3.377887925356715e-06,5.951938232997095e-06,1.6522374415119266e-06,Sat
0.27752884599999916,5.67343054590135e-06,4.5319536717877256e-06,4.342677420320273e-06,3.3932651863153083e-06,5.976452008458844e-06,1.653158839778848e-06,Sat
0.27804807699999934,5.65326723356828e-06,4.542099260576776e-06,4.4406892825545e-06,3.405559635118764e-06,6.020352652484948e-06,1.653903494976632e-06,Sat
0.2785673079999995,5.632654237665396e-06,4.55665812258448e-06,4.506189076476981e-06,3.410797981871932e-06,6.065414966825613e-06,1.654186031331703e-06,Sat
0.2790865379999996,5.61631591706762e-06,4.57612812235903e-06,4.540799033912621e-06,3.4121925364133963e-06,6.094668867006132e-06,1.6539435846181071e-06,Sat
0.2796057689999989,5.606494993904408e-06,4.595400605242705e-06,4.5587268101492046e-06,3.4121595079356994e-06,6.107259813929902e-06,1.6534253700794623e-06,Sat
0.28012499999999907,5.596537647815195e-06,4.609829701043986e-06,4.566594239850487e-06,3.4087906933732102e-06,6.113286969597968e-06,1.6529467653773504e-06,Sat
0.28064423099999924,5.572310965398539e-06,4.622107909315721e-06,4.561514179745883e-06,3.404998639765565e-06,6.119492420653575e-06,1.6527795628135674e-06,Sat
0.2811634619999994,5.528647126044338e-06,4.637623808784331e-06,4.544389344636298e-06,3.404426989103932e-06,6.122898110080321e-06,1.6531973821381258e-06,Sat
0.2816826919999995,5.47621968544208e-06,4.6516955321667225e-06,4.526184708642494e-06,3.407103219167238e-06,6.114080364869656e-06,1.65440566088522e-06,Sat
0.2822019229999997,5.437706795090695e-06,4.65412821809639e-06,4.516261178914216e-06,3.415546290520814e-06,6.078419614781007e-06,1.6564613114987234e-06,Sat
0.282721153999999,5.424269575516335e-06,4.650771990868545e-06,4.513895375454785e-06,3.430341512899448e-06,6.01734660883406e-06,1.659378752313084e-06,Sat
0.28324038499999915,5.427263569537672e-06,4.650863991983104e-06,4.514248853114725e-06,3.4442091145120803e-06,5.978079788857723e-06,1.6631177520829322e-06,Sat
0.28375961499999924,5.4379579400719976e-06,4.647281655716104e-06,4.517497731835453e-06,3.451377730911159e-06,5.9933652933423015e-06,1.6671677170854669e-06,Sat
0.2842788459999994,5.454126384883577e-06,4.635839509567488e-06,4.526346554520895e-06,3.454693634228288e-06,6.015614013732375e-06,1.6703112158776911e-06,Sat
0.2847980769999996,5.473562233350071e-06,4.6216558544111535e-06,4.538141043364012e-06,3.457553198438536e-06,6.000733045583753e-06,1.67125982784492e-06,Sat
0.2853173079999989,5.4900534099444325e-06,4.609157643874154e-06,4.549929367646463e-06,3.4615543227041687e-06,5.964320914590052e-06,1.6693611537153234e-06,Sat
0.285836537999999,5.498628000615364e-06,4.603374971559951e-06,4.563208552766851e-06,3.4654965324993723e-06,5.946460111208107e-06,1.6645814447463054e-06,Sat
0.28635576899999915,5.498184270757397e-06,4.604233133209773e-06,4.58473483126186e-06,3.461732441195531e-06,5.97824583239817e-06,1.6574551868951748e-06,Sat
0.2868749999999993,5.48467574228753e-06,4.60589999565178e-06,4.618380146299255e-06,3.445651832224846e-06,6.03874516433465e-06,1.6491282213666814e-06,Sat
0.2873942309999995,5.450239521065726e-06,4.606454267943072e-06,4.6496311128084105e-06,3.4246939229160337e-06,6.078087698696154e-06,1.640854668358712e-06,Sat
0.2879134619999997,5.393793384976139e-06,4.606638109182436e-06,4.6649106932109855e-06,3.412233649178488e-06,6.081779121413047e-06,1.6332261196394977e-06,Sat
0.2884326919999989,5.324284416385623e-06,4.607297344524805e-06,4.670331576397253e-06,3.4175844920035797e-06,6.067752635034739e-06,1.6259408720388991e-06,Sat
0.28895192299999906,5.253814805873254e-06,4.608747082198135e-06,4.676754603317709e-06,3.4373727195459133e-06,6.053745176086105e-06,1.6184355744378374e-06,Sat
0.28947115399999923,5.190703646688759e-06,4.607724758132123e-06,4.690415327104184e-06,3.456647097972634e-06,6.046777257264258e-06,1.6108560785466615e-06,Sat
0.2899903849999994,5.1368777097722605e-06,4.6023745108197e-06,4.712365529306963e-06,3.466414328859087e-06,6.045503490431659e-06,1.6042024841733605e-06,Sat
0.2905096149999995,5.091390854516644e-06,4.594963077641522e-06,4.741789718017351e-06,3.4692958983876384e-06,6.045024847692494e-06,1.5994797638315529e-06,Sat
0.2910288459999997,5.0545753813471855e-06,4.5853679002976535e-06,4.779676933709347e-06,3.469571869869239e-06,6.041582549492026e-06,1.5968835295843274e-06,Sat
0.29154807699999896,5.030847955350579e-06,4.567803963446595e-06,4.818065518346702e-06,3.469367082498443e-06,6.032173124488156e-06,1.5958785854621731e-06,Sat
0.29206730799999914,5.027471523758435e-06,4.540015748986784e-06,4.835868530623235e-06,3.4694984652830227e-06,6.014002543511605e-06,1.5959842834537182e-06,Sat
0.29258653799999923,5.046173289118802e-06,4.509617817403368e-06,4.822013431662915e-06,3.4690030887217592e-06,5.991500524532609e-06,1.5972745089270757e-06,Sat
0.2931057689999994,5.077694607113715e-06,4.480542854342556e-06,4.789131719853142e-06,3.4691445627008893e-06,5.97564115242646e-06,1.6001436070193287e-06,Sat
0.2936249999999996,5.107481171200873e-06,4.447674294569138e-06,4.758100591935995e-06,3.4735901349581134e-06,5.969080827066742e-06,1.6047202933138237e-06,Sat
0.29414423099999887,5.1245649870616345e-06,4.411727290014775e-06,4.749272059565857e-06,3.477841431757334e-06,5.965164112156463e-06,1.610794577506421e-06,Sat
0.29466346199999904,5.129963136639154e-06,4.381615672058392e-06,4.772366598630527e-06,3.47678563474285e-06,5.962215604458668e-06,1.6182523233877336e-06,Sat
0.29518269199999914,5.129391725786667e-06,4.363766451333876e-06,4.810009814965065e-06,3.472574637399971e-06,5.966645920995551e-06,1.6271298151625286e-06,Sat
0.2957019229999993,5.116628987304039e-06,4.3598021041687656e-06,4.839007211107514e-06,3.464174943136016e-06,5.979872969868777e-06,1.6373215417883624e-06,Sat
0.2962211539999995,5.0932638005152594e-06,4.368137625740383e-06,4.8560370445832015e-06,3.4560357973814585e-06,5.991456337504709e-06,1.6485398865768627e-06,Sat
0.29674038499999966,5.078967579148027e-06,4.383104923136919e-06,4.868411803274109e-06,3.454440280819032e-06,5.995199129468006e-06,1.6603852519480086e-06,Sat
0.29725961499999887,5.079368230822749e-06,4.397121938417132e-06,4.878983696520268e-06,3.4566236580776366e-06,5.995419998096023e-06,1.672146674446948e-06,Sat
0.29777884599999904,5.083104820232777e-06,4.4060608444462e-06,4.884561122825808e-06,3.4660071715180854e-06,5.993784293338768e-06,1.6827475411555351e-06,Sat
0.2982980769999992,5.08412628851535e-06,4.410522716576714e-06,4.883676089114836e-06,3.4793738171213043e-06,5.992279789215827e-06,1.6913657938293735e-06,Sat
0.2988173079999994,5.084018484367636e-06,4.412271720401775e-06,4.885003332627819e-06,3.4845722640536496e-06,5.996118038881997e-06,1.6982757949800372e-06,Sat
0.2993365379999995,5.084274241933704e-06,4.4121316021690506e-06,4.894051542020682e-06,3.48429510945522e-06,6.003160916579023e-06,1.7045355888455264e-06,Sat
0.29985576899999966,5.087579863970554e-06,4.411492836450465e-06,4.900651977106476e-06,3.4856493826690183e-06,6.007000824069102e-06,1.7106147819347795e-06,Sat
0.30037499999999895,5.098275349026623e-06,4.4146403932855335e-06,4.898063287275232e-06,3.493078344234578e-06,6.007301967231053e-06,1.7160266877996092e-06,Sat
0.3008942309999991,5.115833414123963e-06,4.426493899254964e-06,4.890840152791721e-06,3.512559085817374e-06,6.007486485224359e-06,1.7202758562866835e-06,Sat
0.3014134619999993,5.136089589731169e-06,4.446586783493331e-06,4.882421229731792e-06,3.5426945422037867e-06,6.0078905728267954e-06,1.7236470224696868e-06,Sat
0.3019326919999994,5.157510721241291e-06,4.468275360532324e-06,4.872467687983247e-06,3.571060252257666e-06,6.007058990225822e-06,1.7272166493086915e-06,Sat
0.30245192299999957,5.183302545832118e-06,4.486746962050939e-06,4.8625308287711626e-06,3.5850322987477425e-06,6.004503202561657e-06,1.732052919608225e-06,Sat
0.30297115399999885,5.219948109112525e-06,4.504261100482193e-06,4.863105035640989e-06,3.585325620183745e-06,6.000402378295904e-06,1.7381181046337909e-06,Sat
0.30349038499999903,5.274945687331514e-06,4.5244817388397104e-06,4.889022104272744e-06,3.586028952318701e-06,5.994943430037312e-06,1.744357158137543e-06,Sat
0.3040096149999991,5.350690826081582e-06,4.547821760799276e-06,4.93934290344567e-06,3.6119647417142175e-06,5.9841058265223e-06,1.7500257160902396e-06,Sat
0.3045288459999993,5.437599318015674e-06,4.570114883498535e-06,4.996957927657341e-06,3.678235801525667e-06,5.965303052566531e-06,1.7552924903120952e-06,Sat
0.3050480769999995,5.518477056851219e-06,4.581136442672946e-06,5.049957384375027e-06,3.752108621540272e-06,5.943235729658805e-06,1.7604734866194277e-06,Sat
0.30556730799999965,5.577993640209056e-06,4.573127063244172e-06,5.097644074262372e-06,3.7783733980974575e-06,5.9226797479639264e-06,1.7652061591924737e-06,Sat
0.30608653799999885,5.608608037575679e-06,4.551716195405542e-06,5.1407278195980925e-06,3.762306480411416e-06,5.905309127734676e-06,1.7686598773709671e-06,Sat
0.30660576899999903,5.61625611298696e-06,4.530808469108406e-06,5.177183840278311e-06,3.785859791143113e-06,5.889445106472848e-06,1.77044408230652e-06,Sat
0.3071249999999992,5.615893700063377e-06,4.518093360090866e-06,5.206168187521505e-06,3.894760109054362e-06,5.874657981864948e-06,1.7710270908943235e-06,Sat
0.3076442309999994,5.6161445233089e-06,4.5120980162676005e-06,5.229877822733464e-06,4.017480686115847e-06,5.866240312653628e-06,1.7711137834352142e-06,Sat
0.30816346199999956,5.617751577336683e-06,4.508366620215292e-06,5.251447835603316e-06,4.075678634988248e-06,5.865432810043297e-06,1.7709831680401451e-06,Sat
0.30868269199999965,5.618947765768997e-06,4.505529254563696e-06,5.273314729580204e-06,4.083768400716721e-06,5.8629066242126575e-06,1.7705798703567358e-06,Sat
0.30920192299999893,5.618597731188268e-06,4.507759999551572e-06,5.295833710135616e-06,4.08102565318652e-06,5.848541612566058e-06,1.7699216118916287e-06,Sat
0.3097211539999991,5.6200880267849575e-06,4.514441256174961e-06,5.320315528489475e-06,4.073991271312408e-06,5.822910887748152e-06,1.7694362441810886e-06,Sat
0.3102403849999993,5.621810956003425e-06,4.5198652581836085e-06,5.352981220926606e-06,4.064439661690253e-06,5.796756863955479e-06,1.769656398244139e-06,Sat
0.3107596149999994,5.62150547459723e-06,4.519644361474157e-06,5.395112540889893e-06,4.054583516870259e-06,5.779103327278052e-06,1.7707085751853462e-06,Sat
0.31127884599999955,5.623143403372326e-06,4.509048784644494e-06,5.436019952859554e-06,4.047680405558974e-06,5.769694352882896e-06,1.7723262311072957e-06,Sat
0.31179807699999884,5.625479608577403e-06,4.494072977485205e-06,5.463176578640203e-06,4.045271944558098e-06,5.763609482558831e-06,1.7743264741784516e-06,Sat
0.312317307999999,5.626714621304344e-06,4.486681875439578e-06,5.472693849047308e-06,4.041588801385099e-06,5.75794568995909e-06,1.777047702937911e-06,Sat
0.3128365379999991,5.627061975819044e-06,4.486180020374068e-06,5.468932514513701e-06,4.034417353981109e-06,5.7529626991491575e-06,1.7810410994409477e-06,Sat
0.3133557689999993,5.626901557554955e-06,4.48699505833588e-06,5.459415880078794e-06,4.011759178878662e-06,5.749663285868691e-06,1.7866095085077983e-06,Sat
0.31387499999999946,5.6263181558206976e-06,4.487188019853228e-06,5.452045253588164e-06,3.971845748070713e-06,5.75014813517166e-06,1.7941236327656024e-06,Sat
0.31439423099999964,5.615252918551326e-06,4.4842863803010776e-06,5.451802514115444e-06,3.940420183546499e-06,5.757565235389889e-06,1.8044222345681291e-06,Sat
0.3149134619999989,5.585526376133598e-06,4.476227456975829e-06,5.457456682377793e-06,3.926269952100365e-06,5.768777786961305e-06,1.8182606047738595e-06,Sat
0.315432691999999,5.549559287784383e-06,4.4642321451992285e-06,5.464239042683072e-06,3.919906876522011e-06,5.774570478891094e-06,1.8351548094274635e-06,Sat
0.3159519229999992,5.5222898917557096e-06,4.448669731298894e-06,5.467881162441488e-06,3.912931488270547e-06,5.771945041554349e-06,1.853278937446399e-06,Sat
0.31647115399999937,5.501663045982286e-06,4.427621578171672e-06,5.467762337295963e-06,3.900594384924265e-06,5.765259949457841e-06,1.8707873012568144e-06,Sat
0.31699038499999954,5.480404204835792e-06,4.403061651936164e-06,5.467132448322668e-06,3.89270821699723e-06,5.759439026154106e-06,1.8866675753819268e-06,Sat
0.31750961499999963,5.457576539873318e-06,4.382405467140066e-06,5.469478017844763e-06,3.893427548174607e-06,5.760151511053369e-06,1.900423012092043e-06,Sat
0.3180288459999989,5.438430378385218e-06,4.377785718676364e-06,5.477538849988672e-06,3.891027082273193e-06,5.778499425838047e-06,1.911874038987174e-06,Sat
0.3185480769999991,5.429257840290598e-06,4.3946305027232096e-06,5.488993621972074e-06,3.885490590318541e-06,5.818402891571508e-06,1.921525881902087e-06,Sat
0.3190673079999993,5.431079497339635e-06,4.418494380320379e-06,5.496296500590165e-06,3.884056956354815e-06,5.856779285730672e-06,1.9305058491330235e-06,Sat
0.31958653799999936,5.441030526092933e-06,4.434640420379651e-06,5.495952278437515e-06,3.884147036667656e-06,5.870601062169266e-06,1.939711318901944e-06,Sat
0.32010576899999954,5.454865166136799e-06,4.44351032709919e-06,5.488442171990784e-06,3.88413551047627e-06,5.865879801818316e-06,1.948945694874948e-06,Sat
0.3206249999999988,5.467938761063798e-06,4.45127111285764e-06,5.474246973627249e-06,3.883473320925318e-06,5.856881738142613e-06,1.9569714391724423e-06,Sat
0.321144230999999,5.478512259841399e-06,4.469240257989765e-06,5.458781228440832e-06,3.875255944645991e-06,5.848471910725972e-06,1.9627041067520278e-06,Sat
0.3216634619999992,5.489408593720607e-06,4.5067420291471214e-06,5.456578342509975e-06,3.856323176295096e-06,5.840170164817331e-06,1.9661880533944235e-06,Sat
0.32218269199999927,5.505936150554175e-06,4.556262915684182e-06,5.4818202088748125e-06,3.833274115560295e-06,5.831218467250418e-06,1.968181745091387e-06,Sat
0.32270192299999945,5.528538433013326e-06,4.600595274511222e-06,5.529570917319092e-06,3.810249828903924e-06,5.825475104178818e-06,1.969232605025009e-06,Sat
0.3232211539999996,5.5483235865538415e-06,4.628854808126914e-06,5.574845342068178e-06,3.794328871432154e-06,5.826345307713412e-06,1.9693563640401907e-06,Sat
0.3237403849999989,5.558251718411754e-06,4.641798184671429e-06,5.595416308073848e-06,3.79391801716154e-06,5.8300965616528295e-06,1.968360224370925e-06,Sat
0.324259614999999,5.561246831965666e-06,4.646650650888309e-06,5.591986353705939e-06,3.7914948364937943e-06,5.832808916007828e-06,1.9662752300724614e-06,Sat
0.3247788459999992,5.5612206266193576e-06,4.648692967235934e-06,5.583554858572431e-06,3.777007437770419e-06,5.832949365347519e-06,1.9633075593851864e-06,Sat
0.32529807699999935,5.5589508664414455e-06,4.648274636909635e-06,5.589049222778726e-06,3.7660179923267714e-06,5.828089849059276e-06,1.9594301746837367e-06,Sat
0.32581730799999953,5.557688254600558e-06,4.642223484030667e-06,5.6204675406005694e-06,3.761445254257025e-06,5.8166199095919655e-06,1.9541375157254527e-06,Sat
0.3263365379999996,5.558978897208621e-06,4.630234998501544e-06,5.679791624887879e-06,3.76004279141778e-06,5.79535521951898e-06,1.9467390747349828e-06,Sat
0.3268557689999989,5.556783218177802e-06,4.618537666117506e-06,5.752581141939492e-06,3.760247553517874e-06,5.756858593756724e-06,1.9372477381037908e-06,Sat
0.3273749999999991,5.548068778186991e-06,4.611477751021105e-06,5.818638514048067e-06,3.761649966481048e-06,5.697880981168808e-06,1.926754932632198e-06,Sat
0.32789423099999926,5.538410734392116e-06,4.605116119642251e-06,5.8740504000714175e-06,3.7490069267686696e-06,5.630716230906038e-06,1.916393644507545e-06,Sat
0.32841346199999943,5.526907648753395e-06,4.594442906104864e-06,5.928508369418813e-06,3.680419566325317e-06,5.5761099363148255e-06,1.9061809861391308e-06,Sat
0.3289326919999995,5.504643307745659e-06,4.581858095266436e-06,5.985130778057189e-06,3.563200723425588e-06,5.543519215524424e-06,1.8951763439556797e-06,Sat
0.3294519229999988,5.472671952634074e-06,4.572473812872241e-06,6.03635262124107e-06,3.478171047218205e-06,5.528047266019335e-06,1.8826488040827704e-06,Sat
0.329971153999999,5.441270449996147e-06,4.567628635278007e-06,6.074576416163003e-06,3.45886148144763e-06,5.521995612584122e-06,1.869010011236973e-06,Sat
0.33049038499999916,5.418553991107281e-06,4.5599500045703e-06,6.100503148305654e-06,3.4587289852349623e-06,5.5213038719446265e-06,1.8556215985490392e-06,Sat
0.33100961499999926,5.406494278057353e-06,4.538652544905751e-06,6.124232457711027e-06,3.452222307744788e-06,5.522844096174985e-06,1.8438190530293004e-06,Sat
0.33152884599999943,5.3951743153916e-06,4.502181799653407e-06,6.157725185585323e-06,3.4486399437808382e-06,5.522862352061147e-06,1.8339602862981891e-06,Sat
0.3320480769999996,5.376160478049305e-06,4.458247345200645e-06,6.201485987454896e-06,3.451730415319132e-06,5.522046848268575e-06,1.8253465982748749e-06,Sat
0.3325673079999989,5.349436976868011e-06,4.421316237066725e-06,6.244330502084586e-06,3.456634104408142e-06,5.526744833044275e-06,1.81741879174869e-06,Sat
0.333086537999999,5.311726643543586e-06,4.406732213429533e-06,6.277373579424893e-06,3.459796968178201e-06,5.541416998577238e-06,1.8107138089018391e-06,Sat
0.33360576899999916,5.263941518683103e-06,4.415880813710819e-06,6.302097120824694e-06,3.461154691101926e-06,5.562795415464882e-06,1.806473580550851e-06,Sat
0.33412499999999934,5.214989090265425e-06,4.436261909451662e-06,6.323678629877694e-06,3.4612927756017974e-06,5.583102462208532e-06,1.8058264262678872e-06,Sat
0.3346442309999995,5.179785732453442e-06,4.452736449297618e-06,6.340224782963627e-06,3.461005624501103e-06,5.5981081086501046e-06,1.809203765812012e-06,Sat
0.3351634619999997,5.167869459440859e-06,4.453587240674132e-06,6.351179584004476e-06,3.4611476804351013e-06,5.610256520651863e-06,1.8160571707884048e-06,Sat
0.3356826919999989,5.167797240955154e-06,4.438645233726586e-06,6.3627846288481485e-06,3.460537713036778e-06,5.624854690314366e-06,1.8250873142380343e-06,Sat
0.33620192299999907,5.16747719136842e-06,4.421038737783714e-06,6.374739606684505e-06,3.4540363249562997e-06,5.6425804831393145e-06,1.8349879414068464e-06,Sat
0.33672115399999925,5.167676582644193e-06,4.412807134635746e-06,6.380755718699051e-06,3.449957665932171e-06,5.655692764211806e-06,1.8449554751939295e-06,Sat
0.3372403849999994,5.16806587580022e-06,4.412956458632417e-06,6.3811407856183135e-06,3.46079154113917e-06,5.657252018346391e-06,1.854629074869312e-06,Sat
0.3377596149999995,5.168204956173792e-06,4.412394539931413e-06,6.38100342746413e-06,3.470293684294166e-06,5.64947291119616e-06,1.863678357829378e-06,Sat
0.3382788459999997,5.171709984030967e-06,4.406521309459065e-06,6.3811246173620765e-06,3.470268205353572e-06,5.6403493188876376e-06,1.8713686690482272e-06,Sat
0.338798076999999,5.176770543176205e-06,4.400938030325889e-06,6.3801122180620885e-06,3.478490623069494e-06,5.637903244535652e-06,1.876997585220348e-06,Sat
0.33931730799999915,5.176598080256728e-06,4.40261798194875e-06,6.378910007067586e-06,3.4899099374616056e-06,5.648689803257822e-06,1.8807464311578e-06,Sat
0.33983653799999924,5.1670644875205e-06,4.408343817373333e-06,6.378704963019532e-06,3.489156724870545e-06,5.678265585459283e-06,1.8834454490534368e-06,Sat
0.3403557689999994,5.149125519759888e-06,4.411687931125424e-06,6.379106810932084e-06,3.4815501378230705e-06,5.727886810137898e-06,1.885757674514962e-06,Sat
0.3408749999999996,5.132650729415001e-06,4.413290552836027e-06,6.379728321525966e-06,3.474599255762991e-06,5.7933900335646746e-06,1.88773271450602e-06,Sat
0.3413942309999989,5.124636969089082e-06,4.413836383239623e-06,6.3820852494511946e-06,3.470632588674145e-06,5.867694908045157e-06,1.888920712966216e-06,Sat
0.34191346199999906,5.118678163903863e-06,4.412173342783529e-06,6.386691071085626e-06,3.468416520103437e-06,5.938603166679091e-06,1.889214105109001e-06,Sat
0.34243269199999915,5.109704988890672e-06,4.410390016910631e-06,6.391818193181977e-06,3.467328202475416e-06,5.989833244947541e-06,1.889213462118096e-06,Sat
0.3429519229999993,5.0997765436738765e-06,4.409818023010039e-06,6.3975725776060905e-06,3.470348873540537e-06,6.014681269316043e-06,1.889407711551153e-06,Sat
0.3434711539999995,5.094223475891766e-06,4.409507372849959e-06,6.406000130712233e-06,3.4745067808001547e-06,6.022302671232373e-06,1.8896087354963824e-06,Sat
0.3439903849999997,5.09508572944297e-06,4.408561631613091e-06,6.423806611663462e-06,3.476177713806016e-06,6.024325686532821e-06,1.8893735785894332e-06,Sat
0.3445096149999989,5.090678733635679e-06,4.406589868382831e-06,6.467051043679347e-06,3.4767112347652138e-06,6.025657924116823e-06,1.8884997537677696e-06,Sat
0.34502884599999906,5.063859842839949e-06,4.404079857911466e-06,6.547590260280428e-06,3.4769014531359617e-06,6.027287638005131e-06,1.8870229955705728e-06,Sat
0.34554807699999923,5.0121914943407934e-06,4.400796632898268e-06,6.6499077738365685e-06,3.476852441908069e-06,6.02720113719007e-06,1.8850276513906116e-06,Sat
0.3460673079999994,4.954676520745631e-06,4.3953366515575e-06,6.744697983338117e-06,3.4768060419785565e-06,6.022515377194439e-06,1.8825931576281868e-06,Sat
0.3465865379999995,4.911282120410869e-06,4.385450274552795e-06,6.822916089524205e-06,3.4736906007522323e-06,6.016498374914591e-06,1.8797598897644892e-06,Sat
0.3471057689999997,4.882846783640373e-06,4.3696737108295625e-06,6.89408095127306e-06,3.466157289142394e-06,6.0177466759505006e-06,1.876528498121596e-06,Sat
0.34762499999999896,4.859129499391818e-06,4.354369423422183e-06,6.963998967512107e-06,3.462147278828537e-06,6.027909782549261e-06,1.8730232329085357e-06,Sat
0.34814423099999914,4.838625375148304e-06,4.3471682438041855e-06,7.027147819772538e-06,3.4665881449599773e-06,6.038287602419955e-06,1.8695762827285305e-06,Sat
0.3486634619999993,4.8307332149573655e-06,4.3468166086904425e-06,7.075804240631827e-06,3.472644122314786e-06,6.03978807090869e-06,1.866532248674436e-06,Sat
0.3491826919999994,4.833625251153812e-06,4.348162799365929e-06,7.108501468997045e-06,3.473962877192692e-06,6.026787022301887e-06,1.8640581987204884e-06,Sat
0.3497019229999996,4.836172556042732e-06,4.3469831247181165e-06,7.129660143125166e-06,3.4726275284831437e-06,5.997315678921118e-06,1.8621598303678424e-06,Sat
0.35022115399999887,4.8364232796792775e-06,4.344745677841103e-06,7.146272945055825e-06,3.473119728272172e-06,5.958074362087323e-06,1.8607562122074272e-06,Sat
0.35074038499999904,4.836367142830918e-06,4.343585415448184e-06,7.165876990904709e-06,3.4734065398652003e-06,5.920742060525576e-06,1.8597056998116464e-06,Sat
0.35125961499999914,4.83539602993596e-06,4.342088222787255e-06,7.194008805625765e-06,3.471279685195295e-06,5.890418693604964e-06,1.858712428197096e-06,Sat
0.3517788459999993,4.831112501165158e-06,4.338810506251309e-06,7.226984484345841e-06,3.471474992226494e-06,5.8683274619411465e-06,1.8571757439639705e-06,Sat
0.3522980769999995,4.8210880464976585e-06,4.3264766558638505e-06,7.252480295786835e-06,3.4728069446284766e-06,5.859063435427615e-06,1.8543323217285307e-06,Sat
0.35281730799999966,4.806438841160171e-06,4.303657224902842e-06,7.263964532220621e-06,3.4740282412721906e-06,5.863390344244082e-06,1.8498290043944436e-06,Sat
0.35333653799999887,4.790860189842947e-06,4.284155479966354e-06,7.2639158167222495e-06,3.475727291292984e-06,5.869192381376024e-06,1.8443153169288787e-06,Sat
0.35385576899999904,4.77802786609426e-06,4.274951169280538e-06,7.258898534278183e-06,3.4663234494796244e-06,5.860319214363406e-06,1.8390066808159328e-06,Sat
0.3543749999999992,4.768855084584184e-06,4.270697780588096e-06,7.258433374441128e-06,3.450665248158579e-06,5.837895271075156e-06,1.8344550300000596e-06,Sat
0.3548942309999994,4.758537174674487e-06,4.266304753519727e-06,7.268066768275676e-06,3.4453267846054164e-06,5.819483708587223e-06,1.8303111693254492e-06,Sat
0.35541346199999957,4.742995057305425e-06,4.260389273572678e-06,7.286671436115771e-06,3.445406860970257e-06,5.812748172546779e-06,1.8260667953025584e-06,Sat
0.35593269199999966,4.724555449487857e-06,4.256108972767753e-06,7.312033549026903e-06,3.449950816391009e-06,5.809162869701864e-06,1.8216525544622616e-06,Sat
0.35645192299999895,4.706137361518269e-06,4.255832715496694e-06,7.342379329212447e-06,3.460973853849048e-06,5.805166848168041e-06,1.8174632348587629e-06,Sat
0.3569711539999991,4.691876570420506e-06,4.259293546353232e-06,7.370928611816605e-06,3.4680538773949352e-06,5.805949271249438e-06,1.8139518151561515e-06,Sat
0.3574903849999993,4.6858639147327806e-06,4.265316092478139e-06,7.386672015933305e-06,3.468691670046749e-06,5.817281822445417e-06,1.811445882767251e-06,Sat
0.3580096149999994,4.685564872951711e-06,4.270576771459681e-06,7.388418141286624e-06,3.46926202833652e-06,5.842673777019051e-06,1.8102427024017608e-06,Sat
0.35852884599999957,4.686744664254797e-06,4.2735206426278e-06,7.386803918834702e-06,3.481031227441659e-06,5.883217593990162e-06,1.8104747989468163e-06,Sat
0.35904807699999886,4.687884787482752e-06,4.275680860417864e-06,7.388226363944875e-06,3.5055083104409154e-06,5.9403799405945904e-06,1.8118463701966764e-06,Sat
0.35956730799999903,4.6889155821467e-06,4.2768157309288135e-06,7.391699200126257e-06,3.524962635677944e-06,6.006736030914442e-06,1.813761527659674e-06,Sat
0.3600865379999991,4.689193693026557e-06,4.274728981783079e-06,7.398000564400592e-06,3.5320938237676094e-06,6.062838210417566e-06,1.8157192432912676e-06,Sat
0.3606057689999993,4.689405787601651e-06,4.268230675276337e-06,7.413987608355947e-06,3.534582724554015e-06,6.09532862886066e-06,1.817482357604553e-06,Sat
0.3611249999999995,4.690976068489857e-06,4.257868728477302e-06,7.445555250200302e-06,3.535853433639961e-06,6.107603340391221e-06,1.81895754734057e-06,Sat
0.36164423099999965,4.692169102438386e-06,4.247084831170922e-06,7.482838625861086e-06,3.53888303968966e-06,6.109426341839861e-06,1.8200180693474876e-06,Sat
0.36216346199999894,4.6923634337725525e-06,4.24153771672415e-06,7.509166503703707e-06,3.545056796105828e-06,6.105116891399616e-06,1.8205197283284524e-06,Sat
0.36268269199999903,4.694705642452243e-06,4.242844551260885e-06,7.522602786371121e-06,3.54695743368593e-06,6.092505125508738e-06,1.820572325511725e-06,Sat
0.3632019229999992,4.700370719457672e-06,4.246672086401965e-06,7.530975762913323e-06,3.538061189529588e-06,6.069100723644229e-06,1.820656885006003e-06,Sat
0.3637211539999994,4.7065390398813086e-06,4.246321539563064e-06,7.539677302303693e-06,3.5241396475388343e-06,6.039630616333977e-06,1.8211867967003065e-06,Sat
0.36424038499999956,4.711682479373472e-06,4.238599842168514e-06,7.552814773591836e-06,3.51720544997706e-06,6.013469338561268e-06,1.822007078284583e-06,Sat
0.36475961499999965,4.7177274533798e-06,4.230105474442252e-06,7.574575166999028e-06,3.51676864817824e-06,5.996882323608262e-06,1.822590401362767e-06,Sat
0.36527884599999894,4.728175577015829e-06,4.22658308016658e-06,7.610374177584604e-06,3.516876603001634e-06,5.992237647828855e-06,1.8225935220491848e-06,Sat
0.3657980769999991,4.7431084948294215e-06,4.226302097861472e-06,7.661989810791227e-06,3.519169655405845e-06,5.996649628580845e-06,1.822016887888358e-06,Sat
0.3663173079999993,4.756074246391438e-06,4.228381990637191e-06,7.716450037916693e-06,3.5210562895030315e-06,6.000864174132884e-06,1.8210262251722725e-06,Sat
0.3668365379999994,4.76216829641807e-06,4.233459567216943e-06,7.756609798633469e-06,3.521058518792375e-06,5.998718598919305e-06,1.8198140208059664e-06,Sat
0.36735576899999955,4.763586136333812e-06,4.236839920219295e-06,7.781053919851134e-06,3.5245446077838515e-06,5.990395247982221e-06,1.8185482273927448e-06,Sat
0.36787499999999884,4.765093467082166e-06,4.227412444615769e-06,7.801642786563922e-06,3.530865622975031e-06,5.976598403984262e-06,1.817321509063529e-06,Sat
0.368394230999999,4.771966645788547e-06,4.203192672610747e-06,7.826130111563189e-06,3.5338547542417328e-06,5.962828795789571e-06,1.816136173807586e-06,Sat
0.3689134619999992,4.785843543030048e-06,4.176112983232603e-06,7.854224170986749e-06,3.5316216025556096e-06,5.957081736186685e-06,1.8149979481989176e-06,Sat
0.3694326919999993,4.799452643431016e-06,4.157129171402752e-06,7.881955546127885e-06,3.53135093472244e-06,5.957845658255658e-06,1.8139768554287328e-06,Sat
0.36995192299999946,4.805449707066902e-06,4.147714446193315e-06,7.902818434830612e-06,3.537960422491376e-06,5.958598090376652e-06,1.8131528405945497e-06,Sat
0.37047115399999964,4.805056782476143e-06,4.143696743976366e-06,7.91632059950492e-06,3.5433526064608343e-06,5.9577358764413455e-06,1.812638086637533e-06,Sat
0.3709903849999989,4.803354205744026e-06,4.14193277444393e-06,7.927748901381802e-06,3.540645763717657e-06,5.95775551023851e-06,1.812612668694244e-06,Sat
0.371509614999999,4.804183139183248e-06,4.141780169092439e-06,7.94126315325081e-06,3.5344791780255976e-06,5.960130402009808e-06,1.813261666879387e-06,Sat
0.3720288459999992,4.810478627940315e-06,4.141097471622534e-06,7.955274166977758e-06,3.529321332881774e-06,5.963455175791715e-06,1.8145802377715864e-06,Sat
0.37254807699999937,4.823033437791724e-06,4.136353150716816e-06,7.962938227354636e-06,3.525507263567309e-06,5.966202314779666e-06,1.8162491351357037e-06,Sat
0.37306730799999954,4.835270124245623e-06,4.128413541760151e-06,7.96138016597062e-06,3.521938865673822e-06,5.969294209592246e-06,1.817988939033542e-06,Sat
0.37358653799999963,4.838950875945801e-06,4.121424339514565e-06,7.952845777804934e-06,3.513328734305349e-06,5.978121940372592e-06,1.8199441762736733e-06,Sat
0.3741057689999989,4.829310153915287e-06,4.117240866405814e-06,7.939233186098352e-06,3.5037160399326547e-06,6.006138509676123e-06,1.8226643497421653e-06,Sat
0.3746249999999991,4.805787466827547e-06,4.117197461798714e-06,7.923313473244023e-06,3.5008943227440525e-06,6.0650304803458766e-06,1.8269211680880547e-06,Sat
0.3751442309999993,4.775005149770953e-06,4.122531976958458e-06,7.911402837886576e-06,3.500451588049081e-06,6.144133218620414e-06,1.8334638129851515e-06,Sat
0.37566346199999945,4.742677086168375e-06,4.12728779374777e-06,7.906599084332827e-06,3.5054643565924043e-06,6.225426729326216e-06,1.8426171879404983e-06,Sat
0.37618269199999954,4.708457732309458e-06,4.125817328695402e-06,7.905480162403815e-06,3.516063920289923e-06,6.309047254147981e-06,1.8538968840761888e-06,Sat
0.37670192299999883,4.671976984758707e-06,4.1252192643711625e-06,7.904760642639636e-06,3.519560198350072e-06,6.389093021305084e-06,1.8661080296386705e-06,Sat
0.377221153999999,4.637937382960995e-06,4.129712638855234e-06,7.903976452553436e-06,3.516932170575808e-06,6.416182452948264e-06,1.8780063458095828e-06,Sat
0.3777403849999992,4.612468253888826e-06,4.132613480853074e-06,7.905558388273902e-06,3.510814099974066e-06,6.42798956855195e-06,1.8889546236352248e-06,Sat
0.37825961499999927,4.596937411593647e-06,4.132454409271949e-06,7.909311566756183e-06,3.503312746669396e-06,6.703026706873481e-06,1.8989509284510368e-06,Sat
0.37877884599999945,4.588808594368598e-06,4.132654288319275e-06,7.911421652195e-06,3.5091910923879984e-06,7.231449945688552e-06,1.9080984962737768e-06,Sat
0.3792980769999996,4.584622949791439e-06,4.132284648684595e-06,7.911289532538321e-06,3.5226159076396536e-06,7.526531120892892e-06,1.916140740617234e-06,Sat
0.3798173079999989,4.581997726289537e-06,4.128621772737448e-06,7.909598647143357e-06,3.525144668714703e-06,7.535468848472546e-06,1.9225001188054686e-06,Sat
0.380336537999999,4.58153300281986e-06,4.12082218335939e-06,7.907971662424263e-06,3.5262560991974617e-06,7.612516025455211e-06,1.926699776280982e-06,Sat
0.3808557689999992,4.582962291636974e-06,4.110452545097492e-06,7.90818001526232e-06,3.537543482427552e-06,7.738265176823594e-06,1.9288016425688185e-06,Sat
0.38137499999999935,4.583385459715163e-06,4.101005585584031e-06,7.907090841027877e-06,3.548029474874796e-06,7.772286283991176e-06,1.929477497945378e-06,Sat
0.38189423099999953,4.58384960955546e-06,4.094930949500282e-06,7.902709958476048e-06,3.5514808744902293e-06,7.771820155131123e-06,1.9295505338366277e-06,Sat
0.3824134619999988,4.5871434632192506e-06,4.091657446751112e-06,7.898910080167578e-06,3.5523792268198587e-06,7.773040261045403e-06,1.9295220823645958e-06,Sat
0.3829326919999989,4.59119696670189e-06,4.088891567774101e-06,7.898711508324651e-06,3.550435257639872e-06,7.772706284106412e-06,1.929549516087613e-06,Sat
0.3834519229999991,4.593764605700552e-06,4.0834066303811964e-06,7.904283323487514e-06,3.5480267674931447e-06,7.773027593181556e-06,1.9296414641711407e-06,Sat
0.38397115399999926,4.595139743585798e-06,4.071942745892539e-06,7.919593043700868e-06,3.5484833737396933e-06,7.773004882866359e-06,1.92973599169138e-06,Sat
0.38449038499999943,4.5955960406684485e-06,4.055766050071023e-06,7.943344737587714e-06,3.5483559237919865e-06,7.772737782093908e-06,1.9297669810927265e-06,Sat
0.3850096149999995,4.596523628155511e-06,4.040918491294563e-06,7.965663375976293e-06,3.5480654894001104e-06,7.762617458786745e-06,1.9297518924562515e-06,Sat
0.3855288459999988,4.5999956203266665e-06,4.029379232876286e-06,7.977822657017518e-06,3.5475658476674967e-06,7.734082742192115e-06,1.92968674991953e-06,Sat
0.386048076999999,4.602165525297785e-06,4.017866104690411e-06,7.980404398056276e-06,3.545721755448956e-06,7.693967472931916e-06,1.929407698009719e-06,Sat
0.38656730799999917,4.595389508145017e-06,4.005373392741514e-06,7.978911902919418e-06,3.5460688993604622e-06,7.652096051031699e-06,1.928723453977992e-06,Sat
