Time,Rectus Femoris,Vastus Medialis,Vastus Lateralis,Bicep Femoris,Tibialis,Gastrocnemius Medialis,Activity
0.00025961500000004634,4.1039699875322565e-06,2.741029437443631e-06,3.6333729461144415e-06,4.449669997606788e-06,3.696916570971171e-06,2.1354980198291385e-05,Unknown
0.0007788460000002217,4.09990392320951e-06,2.735475478354295e-06,3.646539378660571e-06,4.5293981853791056e-06,3.6960010238269577e-06,2.139651845088555e-05,Unknown
0.0012980770000003972,4.0918315502260085e-06,2.735934114118696e-06,3.657213610122843e-06,4.5762072155203e-06,3.694956830149451e-06,2.1397621167304143e-05,Unknown
0.0018173079999996844,4.09466257031851e-06,2.7375036584203244e-06,3.6640344619884874e-06,4.606087412510258e-06,3.6953032577688512e-06,2.138870826392284e-05,Unknown
0.002336537999999777,4.119361147049441e-06,2.7304399407977176e-06,3.668803709895207e-06,4.633554692699107e-06,3.695246632736808e-06,2.138416545602579e-05,Unknown
0.0028557689999999525,4.153261993548995e-06,2.7252342981022296e-06,3.684005950306593e-06,4.661988944970152e-06,3.695389202134196e-06,2.139823271084799e-05,Unknown
0.003375000000000128,4.180338945109219e-06,2.7260594607148005e-06,3.7113858587663902e-06,4.686546061576132e-06,3.693236258376828e-06,2.145873584951717e-05,Unknown
0.0038942310000003033,4.189836371316132e-06,2.734196418239298e-06,3.7188997288544097e-06,4.702450754146869e-06,3.690788252483528e-06,2.1561731507688708e-05,Unknown
0.004413462000000479,4.183014771610277e-06,2.7547940192107044e-06,3.692705958565295e-06,4.705444241966912e-06,3.689207636111486e-06,2.165827133438262e-05,Unknown
0.004932691999999683,4.186970137640204e-06,2.7850889480562e-06,3.656276113783808e-06,4.704517931823063e-06,3.688561758772817e-06,2.170375576390624e-05,Unknown
0.005451922999999859,4.204180495106968e-06,2.8292269176496964e-06,3.6219839377054657e-06,4.735593236522324e-06,3.695056454590875e-06,2.1700079178058684e-05,Unknown
0.005971154000000034,4.206324731442298e-06,2.893752094429188e-06,3.5816535539645883e-06,4.811173719029149e-06,3.715374394622152e-06,2.1699983086478505e-05,Unknown
0.0064903850000002095,4.20180535385529e-06,2.964731776725366e-06,3.5298292927897854e-06,4.888340410078598e-06,3.7500979108226254e-06,2.1721507617857468e-05,Unknown
0.007009615000000302,4.205185905369885e-06,3.0178439718704704e-06,3.490918773977484e-06,4.934820354131917e-06,3.793282845174525e-06,2.1659888397339096e-05,Unknown
0.0075288460000004775,4.207087891718165e-06,3.043543713041684e-06,3.4973154525778028e-06,4.958228168471499e-06,3.831638308960227e-06,2.1385266462299216e-05,Unknown
0.008048076999999765,4.207067683642098e-06,3.0509702488707555e-06,3.5577200783171148e-06,4.970183659606542e-06,3.851024451440878e-06,2.0881069140885805e-05,Unknown
0.00856730799999994,4.207050319433469e-06,3.0509790139370663e-06,3.648571213842885e-06,4.974368398591267e-06,3.849958060619088e-06,2.035452393205541e-05,Unknown
0.009086538000000033,4.205252765486422e-06,3.050059870450734e-06,3.707427498809168e-06,4.97288236851036e-06,3.838421690438641e-06,2.017169253586156e-05,Unknown
0.009605769000000208,4.203759420954508e-06,3.0546128868921115e-06,3.717883306071096e-06,4.9693941306041885e-06,3.834302842449508e-06,2.032990979581553e-05,Unknown
0.010125000000000384,4.203801626856499e-06,3.062056177597928e-06,3.7180681201292496e-06,4.968086446175967e-06,3.857225084708411e-06,2.0395603749161343e-05,Unknown
0.010644230999999671,4.2098829417683605e-06,3.0642136374630696e-06,3.7257264884539145e-06,4.972236516896069e-06,3.895883857887483e-06,2.026707208936437e-05,Unknown
0.011163461999999846,4.221797694367238e-06,3.0645174957709e-06,3.7350874730361503e-06,4.983223027241203e-06,3.914053854954412e-06,2.0225315090952343e-05,Unknown
0.011682691999999939,4.228839208575249e-06,3.068366838276343e-06,3.7320824198667664e-06,4.995697937074196e-06,3.906469649526207e-06,2.027654220796909e-05,Unknown
0.012201923000000114,4.229589015523117e-06,3.0704573099531765e-06,3.729349122002024e-06,5.003578411179492e-06,3.896090342903794e-06,2.029726279948126e-05,Unknown
0.01272115400000029,4.22868973499683e-06,3.0669393761455363e-06,3.75010822967584e-06,5.007950037249427e-06,3.890126592851244e-06,2.027676742707692e-05,Unknown
0.013240385000000465,4.226050575655868e-06,3.0613649223181774e-06,3.7771385404543568e-06,5.011497017221512e-06,3.883946943723173e-06,2.0123241016844524e-05,Unknown
0.01375961499999967,4.225183289378959e-06,3.0593817383287533e-06,3.791162124353825e-06,5.014418360202362e-06,3.882493941178868e-06,1.990476340527824e-05,Unknown
0.014278845999999845,4.224734446201267e-06,3.0590930991219216e-06,3.799269322077471e-06,5.015084783300206e-06,3.898768273024989e-06,1.982083704900242e-05,Unknown
0.01479807700000002,4.216026280740241e-06,3.05528132400226e-06,3.812149171314272e-06,5.012226346356279e-06,3.95238638810742e-06,1.982152758864445e-05,Unknown
0.015317308000000196,4.206931190099216e-06,3.054950622333939e-06,3.83687198752012e-06,5.010386402982293e-06,4.046075989260888e-06,1.979214107001058e-05,Unknown
0.01583653800000029,4.206802973200936e-06,3.0631858672873045e-06,3.872216888598351e-06,5.0123343153902886e-06,4.133587806447794e-06,1.977509137654577e-05,Unknown
0.016355769000000464,4.202533676940983e-06,3.072708337075749e-06,3.912213633488228e-06,5.012464080857995e-06,4.16489383044452e-06,1.977101228186324e-05,Unknown
0.01687499999999975,4.193631656579377e-06,3.075329905002616e-06,3.956043495516416e-06,5.01149307572282e-06,4.1495364480917285e-06,1.9704097090592158e-05,Unknown
0.017394230999999927,4.192447943756857e-06,3.070433709357975e-06,4.007088101030092e-06,5.012259555090533e-06,4.1316637817276805e-06,1.962193600348432e-05,Unknown
0.017913462000000102,4.19289140592059e-06,3.0665772053638165e-06,4.060917726290119e-06,5.007811162023678e-06,4.133703687701445e-06,1.960503389307588e-05,Unknown
0.018432692000000195,4.195753638758121e-06,3.0702936810055734e-06,4.102330907036627e-06,4.998840874289321e-06,4.150293885127235e-06,1.9600147267269037e-05,Unknown
0.01895192300000037,4.20337451736642e-06,3.076928318711529e-06,4.127978048518408e-06,4.99394741836822e-06,4.161575211716298e-06,1.957527695194348e-05,Unknown
0.019471153999999657,4.204843630382491e-06,3.079241711649696e-06,4.146865665100357e-06,4.993026171340062e-06,4.15731658417692e-06,1.9569822299616757e-05,Unknown
0.019990384999999833,4.204235334965696e-06,3.0779955546021347e-06,4.16819118412951e-06,4.99289616017248e-06,4.152945347399376e-06,1.9567552876708005e-05,Unknown
0.020509614999999926,4.204619776081886e-06,3.0770177617047173e-06,4.201408307257909e-06,4.991335783690799e-06,4.158424919633852e-06,1.955485865517801e-05,Unknown
0.0210288460000001,4.204243222748194e-06,3.07706856579895e-06,4.246890763483313e-06,4.985332647577996e-06,4.182124920356936e-06,1.9554667964846645e-05,Unknown
0.021548077000000276,4.219181208048909e-06,3.0789323714475443e-06,4.2895281321738e-06,4.97722632982829e-06,4.238032637279245e-06,1.9550104697614955e-05,Unknown
0.022067308000000452,4.248372220378168e-06,3.0826499827813584e-06,4.31154063894028e-06,4.972679146535995e-06,4.3089074327384825e-06,1.9534872119258703e-05,Unknown
0.022586537999999656,4.268021036654776e-06,3.084552028750425e-06,4.311169476715014e-06,4.9730954327561466e-06,4.363831667648753e-06,1.954038437576545e-05,Unknown
0.02310576899999983,4.277143689485746e-06,3.082281622116991e-06,4.302274000366167e-06,4.975628506240555e-06,4.392789007376669e-06,1.9536712409725115e-05,Unknown
0.023625000000000007,4.281691999233042e-06,3.080408389665099e-06,4.297259592824956e-06,4.976274400747439e-06,4.402847439170529e-06,1.9476106903570826e-05,Unknown
0.024144231000000183,4.282492851596602e-06,3.085811590284896e-06,4.299939406819807e-06,4.976800399460256e-06,4.400894245609949e-06,1.940192723103662e-05,Unknown
0.024663462000000358,4.28597335140976e-06,3.0977126932288384e-06,4.307783130865877e-06,4.982682308935484e-06,4.389978842216111e-06,1.936660143741996e-05,Unknown
0.02518269200000045,4.28690181986542e-06,3.1080080481963453e-06,4.315927978121316e-06,4.990120495304214e-06,4.376753905338205e-06,1.935752442344124e-05,Unknown
0.025701922999999738,4.290109639343837e-06,3.108599005049921e-06,4.322398306551633e-06,4.993088527390255e-06,4.3674419270601055e-06,1.9352142948887035e-05,Unknown
0.026221153999999913,4.305176256088249e-06,3.106822617908936e-06,4.327750146994751e-06,4.9930744212363e-06,4.363415861274959e-06,1.9342170801732684e-05,Unknown
0.02674038500000009,4.316545350413648e-06,3.120448958084274e-06,4.331432234114064e-06,4.992271941617968e-06,4.361867842829717e-06,1.9331067584729315e-05,Unknown
0.02725961500000018,4.317908448754391e-06,3.1413639254587835e-06,4.330586943728617e-06,4.991730015236792e-06,4.358635642739189e-06,1.9329729763059383e-05,Unknown
0.027778846000000357,4.317532447009075e-06,3.152586258288841e-06,4.325892343109395e-06,4.99186243675408e-06,4.353396976315662e-06,1.9330132625577404e-05,Unknown
0.028298076999999644,4.31719198208999e-06,3.156779387718291e-06,4.324672442526439e-06,4.992637889176013e-06,4.349900903561949e-06,1.931026162994508e-05,Unknown
0.02881730799999982,4.31544225886283e-06,3.15815562450196e-06,4.332462286874373e-06,4.996082350229398e-06,4.35004823994806e-06,1.9267003056295445e-05,Unknown
0.029336537999999912,4.306701247782538e-06,3.158083565749838e-06,4.347368410141636e-06,5.002209759061133e-06,4.350058294200226e-06,1.921738973728267e-05,Unknown
0.029855769000000087,4.293472905228077e-06,3.158012237815982e-06,4.366472025797204e-06,5.0073388905785495e-06,4.348551617181341e-06,1.9173143843480297e-05,Unknown
0.030375000000000263,4.289959499456684e-06,3.1563744059895494e-06,4.39447798733582e-06,5.010063426203043e-06,4.348434651861085e-06,1.912976424335048e-05,Unknown
0.03089423100000044,4.298947095371914e-06,3.1540552452970305e-06,4.441625495443931e-06,5.011642814269865e-06,4.349041721895079e-06,1.9076072179894126e-05,Unknown
0.031413461999999726,4.30647788628386e-06,3.1546157264754624e-06,4.516543144459086e-06,5.011656866375152e-06,4.348229113900042e-06,1.9010411897808022e-05,Unknown
0.03193269199999982,4.30631816030518e-06,3.1573053114272063e-06,4.620639390234723e-06,5.007340416826518e-06,4.3307420016017865e-06,1.8948365534098316e-05,Unknown
0.032451922999999994,4.307108942040096e-06,3.158608722985697e-06,4.739047522643642e-06,4.9984549886422046e-06,4.276435493517529e-06,1.8908977269619388e-05,Unknown
0.03297115400000017,4.307186123778802e-06,3.1600910577027435e-06,4.841922053378753e-06,4.988251515805488e-06,4.198119355475785e-06,1.8896422060835435e-05,Unknown
0.033490385000000344,4.301605884056448e-06,3.16405041551384e-06,4.914747230991099e-06,4.976776206271293e-06,4.126974014278252e-06,1.8897725925241307e-05,Unknown
0.03400961500000044,4.297247768541502e-06,3.1699769358358348e-06,4.967685600573951e-06,4.962737217158111e-06,4.080710764366897e-06,1.8897272546580064e-05,Unknown
0.034528845999999724,4.295901302718434e-06,3.180513981240883e-06,5.010624697056092e-06,4.950461030247197e-06,4.066957270629417e-06,1.8892751468437652e-05,Unknown
0.0350480769999999,4.298149750024607e-06,3.1949087732323204e-06,5.044920086853424e-06,4.945161867689241e-06,4.091188015162101e-06,1.8889283606532056e-05,Unknown
0.035567308000000075,4.305494582983934e-06,3.2074075399327378e-06,5.066685009516746e-06,4.944576241205662e-06,4.149881323325682e-06,1.8887716442259116e-05,Unknown
0.03608653800000017,4.313208374901676e-06,3.2180243729112828e-06,5.074392090742493e-06,4.94461869581949e-06,4.218169381789311e-06,1.888670628899672e-05,Unknown
0.03660576900000034,4.312135109139587e-06,3.230354340312025e-06,5.072728889233452e-06,4.945091390436717e-06,4.266602543813e-06,1.8884606427499943e-05,Unknown
0.03712499999999963,4.297097809089901e-06,3.247968861846567e-06,5.066869601721014e-06,4.94344404043291e-06,4.289264864176113e-06,1.8880016014207656e-05,Unknown
0.037644230999999806,4.284827128926835e-06,3.268355004460603e-06,5.066103003421026e-06,4.938761485878781e-06,4.29927386778279e-06,1.8873162957505664e-05,Unknown
0.03816346199999998,4.2853715839720665e-06,3.281815594972492e-06,5.080929204892404e-06,4.935935526091115e-06,4.3084087550348205e-06,1.8865122754955797e-05,Unknown
0.038682692000000074,4.280835233782691e-06,3.2872160817625446e-06,5.1113830536689325e-06,4.93604406258171e-06,4.3231198795931644e-06,1.8857436612070685e-05,Unknown
0.03920192300000025,4.270129408459129e-06,3.2916326149858226e-06,5.1499461340380245e-06,4.936414510454504e-06,4.3469637395270535e-06,1.885101165114769e-05,Unknown
0.039721154000000425,4.272136141888453e-06,3.298236134407356e-06,5.188063907372071e-06,4.936142348769298e-06,4.380837684980786e-06,1.8846678605427407e-05,Unknown
0.04024038499999971,4.283596840478157e-06,3.30254768667239e-06,5.220261784250344e-06,4.933735113259611e-06,4.423318821648929e-06,1.884515715758958e-05,Unknown
0.040759614999999805,4.289682404548303e-06,3.302520088296921e-06,5.248168597874266e-06,4.92944744939426e-06,4.471127721927296e-06,1.884491558676485e-05,Unknown
0.04127884599999998,4.289629906662887e-06,3.3085198235049665e-06,5.274787260642595e-06,4.927519321732701e-06,4.527296820027189e-06,1.884382869102081e-05,Unknown
0.041798077000000156,4.288823021001514e-06,3.328343242607372e-06,5.297221939439625e-06,4.927544457561947e-06,4.5960383978040765e-06,1.884162055918965e-05,Unknown
0.04231730800000033,4.289638311781001e-06,3.352592854058482e-06,5.310182871678244e-06,4.925208119849839e-06,4.67579179952914e-06,1.8839341573035688e-05,Unknown
0.042836538000000424,4.29001867131472e-06,3.3684847352953005e-06,5.314938153402768e-06,4.923370039549328e-06,4.774452060315051e-06,1.8837667303643928e-05,Unknown
0.04335576899999971,4.28894613477558e-06,3.376631289355171e-06,5.317482618244188e-06,4.924662592539461e-06,4.894215144377307e-06,1.8836480107286552e-05,Unknown
0.043874999999999886,4.289809191033436e-06,3.382020938514868e-06,5.318766044031375e-06,4.924485516956382e-06,5.010653399962655e-06,1.8836298369336803e-05,Unknown
0.04439423100000006,4.2917425535792016e-06,3.387570379931473e-06,5.315376351471456e-06,4.921981452607938e-06,5.102355152022376e-06,1.8835057947121692e-05,Unknown
0.04491346200000024,4.291269603786671e-06,3.3965509109498825e-06,5.307738922650834e-06,4.920614668399458e-06,5.17076303912307e-06,1.8812737927331056e-05,Unknown
0.04543269200000033,4.289484041920777e-06,3.4044441479516704e-06,5.300265642405354e-06,4.921159552449045e-06,5.22796572274858e-06,1.871846945751078e-05,Unknown
0.04595192299999962,4.287968808164555e-06,3.406336961297355e-06,5.294852457122962e-06,4.923033210520922e-06,5.283640348061982e-06,1.851543224847492e-05,Unknown
0.04647115399999979,4.293278073280999e-06,3.4013558479864213e-06,5.290799202841491e-06,4.924766054679643e-06,5.336117305409856e-06,1.8284473089692143e-05,Unknown
0.04699038499999997,4.31214575308373e-06,3.3895887519523938e-06,5.288636621324928e-06,4.922351305857379e-06,5.37223035236975e-06,1.818650114219954e-05,Unknown
0.04750961500000006,4.332221519129863e-06,3.37818118220022e-06,5.289369894275671e-06,4.914755684677686e-06,5.384034684716944e-06,1.819441792698497e-05,Unknown
0.048028846000000236,4.340327496486701e-06,3.373014729705101e-06,5.291105203595078e-06,4.907200609807077e-06,5.378767485601233e-06,1.8071662157793345e-05,Unknown
0.04854807700000041,4.3420165275272895e-06,3.3719134105587267e-06,5.29073958177524e-06,4.904359279159188e-06,5.366487344442466e-06,1.77846947492292e-05,Unknown
0.0490673079999997,4.3410730863696585e-06,3.3718284533126266e-06,5.287725569202986e-06,4.904842622068453e-06,5.354702639056222e-06,1.7574863328347828e-05,Unknown
0.04958653799999979,4.337765281242986e-06,3.3722418135595043e-06,5.278379422618446e-06,4.906709444528581e-06,5.349993831611887e-06,1.7527958677957643e-05,Unknown
0.05010576899999997,4.343523574269989e-06,3.373630647467312e-06,5.255839225863123e-06,4.909853714026873e-06,5.35236637461228e-06,1.7528629460376416e-05,Unknown
0.05062500000000014,4.35198722602229e-06,3.3765174188703035e-06,5.224148813771845e-06,4.91278731160162e-06,5.360528700919858e-06,1.7528585647865167e-05,Unknown
0.05114423100000032,4.342891168163886e-06,3.3806706938933817e-06,5.19912417703359e-06,4.912476219416067e-06,5.379764095062406e-06,1.7528950567899888e-05,Unknown
0.05166346200000049,4.32812190681128e-06,3.3841717837176745e-06,5.191807119741101e-06,4.892711177298932e-06,5.412575641344599e-06,1.7528123105322403e-05,Unknown
0.0521826919999997,4.321584673895891e-06,3.384908163726482e-06,5.196947924359125e-06,4.84151487557773e-06,5.4526938758241565e-06,1.7486268533026092e-05,Unknown
0.05270192299999987,4.320855617933562e-06,3.3840122617013835e-06,5.203197987683036e-06,4.785810574641843e-06,5.492769997164209e-06,1.7323205091365223e-05,Unknown
0.05322115400000005,4.314308161920011e-06,3.3868403476818635e-06,5.2093829795750064e-06,4.7560373048201774e-06,5.5329774089896695e-06,1.7122100296708774e-05,Unknown
0.053740385000000224,4.270649140706682e-06,3.391140499416775e-06,5.221456290605101e-06,4.746813738406233e-06,5.588885198673583e-06,1.7031295336632127e-05,Unknown
0.054259615000000316,4.203739858275119e-06,3.390231106041669e-06,5.242391377828698e-06,4.740566776347206e-06,5.686485060113275e-06,1.7019852232569967e-05,Unknown
0.05477884600000049,4.168365286790256e-06,3.3929081544249635e-06,5.256055307675541e-06,4.7249038613231225e-06,5.837827350596419e-06,1.702127682069093e-05,Unknown
0.05529807699999978,4.168412786571141e-06,3.40271156042712e-06,5.2364848226519705e-06,4.694318693648052e-06,6.01631720196626e-06,1.7023022054173506e-05,Unknown
0.055817307999999954,4.173815931222903e-06,3.40776157429535e-06,5.200463871493917e-06,4.65986847658032e-06,6.174264817683007e-06,1.702115571468491e-05,Unknown
0.05633653800000005,4.172592559541816e-06,3.407111168593192e-06,5.185275804850357e-06,4.6391087927490125e-06,6.288838686837444e-06,1.6994844779506873e-05,Unknown
0.05685576900000022,4.162813166156747e-06,3.4062402303221246e-06,5.185206419448744e-06,4.633562571360428e-06,6.371377636499441e-06,1.6954815948151076e-05,Unknown
0.0573750000000004,4.13623007282672e-06,3.405922173046059e-06,5.1819978545028646e-06,4.633030379294944e-06,6.446539584620348e-06,1.6942985711531554e-05,Unknown
0.057894230999999685,4.078369635074781e-06,3.4065445801055626e-06,5.1784305196723965e-06,4.630932900862036e-06,6.539029725186074e-06,1.6945295165042457e-05,Unknown
0.05841346199999986,3.985734895809021e-06,3.40187459992458e-06,5.178092559335042e-06,4.624017540262184e-06,6.662918956980576e-06,1.6945432378932887e-05,Unknown
0.05893269199999995,3.883381266476337e-06,3.3792697480912826e-06,5.178805124678208e-06,4.61218921808377e-06,6.804838231860001e-06,1.6889678308510773e-05,Unknown
0.05945192300000013,3.8054237988915777e-06,3.339633455165544e-06,5.179516616896408e-06,4.601746691474796e-06,6.9275871286794605e-06,1.6718275529469515e-05,Unknown
0.059971154000000304,3.760198213332704e-06,3.3045152162252265e-06,5.180636697522644e-06,4.597688581114078e-06,7.007494887334945e-06,1.6527644367788924e-05,Unknown
0.06049038500000048,3.739346829620663e-06,3.290077775620959e-06,5.18485826124751e-06,4.597549907497632e-06,7.053848619979042e-06,1.6443299831036374e-05,Unknown
0.061009614999999684,3.733843298195967e-06,3.2899846937132844e-06,5.1981942661866494e-06,4.597825799519438e-06,7.086915877068974e-06,1.6447235717924082e-05,Unknown
0.06152884599999986,3.730933207910869e-06,3.292113848778257e-06,5.225884240088916e-06,4.601062166091895e-06,7.119619427773289e-06,1.647094839036954e-05,Unknown
0.062048077000000035,3.730147902360064e-06,3.2921994956224608e-06,5.266546914791238e-06,4.610374321586069e-06,7.153922299605613e-06,1.649585399657202e-05,Unknown
0.06256730800000021,3.733892677944093e-06,3.2929526135281856e-06,5.311070258378133e-06,4.620067066250667e-06,7.183706454979214e-06,1.652168204806093e-05,Unknown
0.0630865380000003,3.732859392709899e-06,3.298697247040613e-06,5.346951608798839e-06,4.623555052332618e-06,7.204307658022073e-06,1.6533267247425425e-05,Unknown
0.06360576900000048,3.731212220009921e-06,3.308110639575069e-06,5.365861530130268e-06,4.623485213833388e-06,7.2172768674757746e-06,1.651799801598402e-05,Unknown
0.06412499999999977,3.731165773176464e-06,3.316461326818159e-06,5.3690477383499965e-06,4.622082518879803e-06,7.227133314873763e-06,1.648487277113557e-05,Unknown
0.06464423099999994,3.732203715693168e-06,3.322717751211948e-06,5.364390004673965e-06,4.61459819561813e-06,7.233928729227528e-06,1.646404042338266e-05,Unknown
0.06516346200000012,3.757879937906782e-06,3.327477175890305e-06,5.360120410779465e-06,4.60214620612625e-06,7.234854960176382e-06,1.647935953721358e-05,Unknown
0.06568269200000021,3.806513776892112e-06,3.329497380360162e-06,5.362660994848413e-06,4.5928877827618016e-06,7.233867829468759e-06,1.648060770353359e-05,Unknown
0.06620192300000038,3.843175495503351e-06,3.328269397362269e-06,5.372460767671503e-06,4.588477770019991e-06,7.234074120819386e-06,1.6357701476236672e-05,Unknown
0.06672115399999967,3.8562226809624985e-06,3.325748528240756e-06,5.379586510156615e-06,4.584502238518714e-06,7.232257053697324e-06,1.6159923704117714e-05,Unknown
0.06724038499999985,3.851537775150217e-06,3.323658985670044e-06,5.3779585623413325e-06,4.5752780569802594e-06,7.231113823703496e-06,1.6094216549292402e-05,Unknown
0.06775961499999994,3.848706033398406e-06,3.323173793431225e-06,5.380993935390555e-06,4.55861015122219e-06,7.23152258928976e-06,1.6092092492418937e-05,Unknown
0.06827884600000012,3.864625715162989e-06,3.3246489282682726e-06,5.401368234551455e-06,4.542652411856618e-06,7.230986847427813e-06,1.5970976929016122e-05,Unknown
0.06879807700000029,3.877751555961704e-06,3.32654775167899e-06,5.427716415383775e-06,4.534999194319018e-06,7.238871264691539e-06,1.5906840695638125e-05,Unknown
0.06931730800000047,3.877681969911524e-06,3.3223682680656406e-06,5.447938234928978e-06,4.5328248209890565e-06,7.256732752248426e-06,1.5909479819251605e-05,Unknown
0.06983653799999967,3.875942693759191e-06,3.305883598382144e-06,5.46859049649874e-06,4.532553016959124e-06,7.269363740543931e-06,1.5684961169975944e-05,Unknown
0.07035576899999985,3.871906245846434e-06,3.2858150092516705e-06,5.504006760019401e-06,4.533675440883117e-06,7.269145395014472e-06,1.5373777441457406e-05,Unknown
0.07087500000000002,3.870245080313469e-06,3.2735261354052258e-06,5.56362961317864e-06,4.535213060752271e-06,7.260602686679465e-06,1.530296373635128e-05,Unknown
0.0713942310000002,3.873976316715028e-06,3.2689659610937666e-06,5.63671208196068e-06,4.53515326332843e-06,7.255724831637095e-06,1.5420886927039734e-05,Unknown
0.07191346200000037,3.878042514787377e-06,3.2687516331550906e-06,5.701907418008203e-06,4.529601432375467e-06,7.274442143316203e-06,1.5540978399287264e-05,Unknown
0.07243269200000046,3.88097379679664e-06,3.270125029160574e-06,5.7482201574753765e-06,4.520939731780206e-06,7.326769993034917e-06,1.5584308029285217e-05,Unknown
0.07295192299999975,3.883577691682074e-06,3.27085888482232e-06,5.768533165877508e-06,4.517666686233877e-06,7.401089870084772e-06,1.5552265264424812e-05,Unknown
0.07347115399999993,3.885347358927872e-06,3.271201547565465e-06,5.763336905150946e-06,4.517622338855049e-06,7.48443962574798e-06,1.5482850554476082e-05,Unknown
0.0739903850000001,3.883957286087963e-06,3.2705716349490914e-06,5.7523286474999225e-06,4.515348354859313e-06,7.571860399837883e-06,1.5416373007987998e-05,Unknown
0.0745096150000002,3.8837451923254e-06,3.265882510827291e-06,5.748681323687975e-06,4.515870836403497e-06,7.65566144098514e-06,1.5369147969148596e-05,Unknown
0.07502884600000037,3.885875086462583e-06,3.257503332321024e-06,5.748745353442224e-06,4.5181941560591904e-06,7.729028935495803e-06,1.5343926037238372e-05,Unknown
0.07554807699999966,3.885298918606376e-06,3.2479519270998134e-06,5.752675593217983e-06,4.510172637595358e-06,7.793016532286209e-06,1.5344688280970257e-05,Unknown
0.07606730799999983,3.882780373131341e-06,3.2368780967004798e-06,5.7595477238094426e-06,4.494598706348578e-06,7.85166226303414e-06,1.5319640634178336e-05,Unknown
0.07658653799999993,3.8805754909028765e-06,3.224899497582465e-06,5.762675773173405e-06,4.486782880681269e-06,7.907694501390683e-06,1.5135950106223966e-05,Unknown
0.0771057690000001,3.885610665105626e-06,3.2185580631642905e-06,5.762015691338702e-06,4.486312406471714e-06,7.956314047648699e-06,1.4780559184525862e-05,Unknown
0.07762500000000028,3.897822203697146e-06,3.2182510724970666e-06,5.760844322046119e-06,4.486306757214171e-06,7.98858250833757e-06,1.4429654342475273e-05,Unknown
0.07814423100000045,3.904248854564945e-06,3.2186178906948536e-06,5.758762966704219e-06,4.486398012766654e-06,8.006137514511953e-06,1.416511211078819e-05,Unknown
0.07866346199999974,3.904740720318435e-06,3.2191482541080057e-06,5.757767003985808e-06,4.484788400283594e-06,8.017189060392934e-06,1.3882068722713686e-05,Unknown
0.07918269199999983,3.903681123746506e-06,3.218167610553794e-06,5.761530804555395e-06,4.482920928735964e-06,8.027881259025634e-06,1.3432035897154416e-05,Unknown
0.07970192300000001,3.899836753599965e-06,3.2154783832580465e-06,5.7652045716971e-06,4.483252727926675e-06,8.042078148381097e-06,1.2865963356207006e-05,Unknown
0.08022115400000018,3.900992676328612e-06,3.213669397373537e-06,5.763195312450835e-06,4.48233359807977e-06,8.055580096402222e-06,1.2522822968139624e-05,Unknown
0.08074038500000036,3.912360706176641e-06,3.212906029370582e-06,5.759648424094759e-06,4.4804764298115495e-06,8.061169874699507e-06,1.2482558520747072e-05,Unknown
0.08125961500000045,3.927169010781154e-06,3.212385858976418e-06,5.758267817891191e-06,4.481536598683906e-06,8.058321048282619e-06,1.245969586511866e-05,Unknown
0.08177884599999974,3.938000403907331e-06,3.211446050285839e-06,5.7584205976259386e-06,4.482008570153281e-06,8.050952800670404e-06,1.2336357984056368e-05,Unknown
0.08229807699999991,3.947008700770072e-06,3.2066025539613504e-06,5.764330983489967e-06,4.479745284231648e-06,8.044192051270116e-06,1.2182810908289356e-05,Unknown
0.08281730800000009,3.962488931297615e-06,3.193304077163216e-06,5.780974864473628e-06,4.479840182818142e-06,8.041630242878061e-06,1.2050422538259124e-05,Unknown
0.08333653800000018,3.979236707140811e-06,3.174286667840243e-06,5.804122931899238e-06,4.480667291552471e-06,8.04202315519614e-06,1.1950538146220447e-05,Unknown
0.08385576900000036,3.9867911715374525e-06,3.156334318807247e-06,5.825637318081775e-06,4.474291414940942e-06,8.041672316989891e-06,1.1874082927542891e-05,Unknown
0.08437499999999964,3.987210531067935e-06,3.1406971240012087e-06,5.840039860656915e-06,4.457269400032194e-06,8.040894919307517e-06,1.179147539162656e-05,Unknown
0.08489423099999982,3.9854140929291925e-06,3.1241911583043504e-06,5.847417542616826e-06,4.430990510221021e-06,8.041005720431456e-06,1.167520006874544e-05,Unknown
0.085413462,3.984003686119536e-06,3.1075308571552712e-06,5.850532569501835e-06,4.398648748960338e-06,8.039497575268232e-06,1.154254610400884e-05,Unknown
0.08593269200000009,3.984000815946718e-06,3.098559565933244e-06,5.853690156185556e-06,4.364035727419772e-06,8.038757693275838e-06,1.1447341537789646e-05,Unknown
0.08645192300000026,3.983662844303112e-06,3.09810635979299e-06,5.866292675352589e-06,4.33370099068616e-06,8.041434771504795e-06,1.1411011555082356e-05,Unknown
0.08697115400000044,3.984519950707336e-06,3.0992011746233978e-06,5.894734884735754e-06,4.310658031358921e-06,8.042158817631325e-06,1.1411493788511727e-05,Unknown
0.08749038499999973,3.9920087576279965e-06,3.1006430841914307e-06,5.925755283273985e-06,4.291964267617488e-06,8.043923799409994e-06,1.1423466093183225e-05,Unknown
0.08800961499999982,4.0036140969131705e-06,3.100824478713756e-06,5.940300378255473e-06,4.277120282709911e-06,8.054287374775135e-06,1.1438637263086308e-05,Unknown
0.088528846,4.010344792256081e-06,3.0973586217916136e-06,5.943176130166933e-06,4.266600669783399e-06,8.067194654179544e-06,1.1457495940060646e-05,Unknown
0.08904807700000017,4.011291410382015e-06,3.0935678046904733e-06,5.943030437326326e-06,4.261915984936069e-06,8.076261263907187e-06,1.1448615779922171e-05,Unknown
0.08956730800000035,4.010767048039222e-06,3.092142483939113e-06,5.941348132595866e-06,4.26168068254643e-06,8.084582346062456e-06,1.1347389149909354e-05,Unknown
0.09008653800000044,4.0083445857857294e-06,3.091495158426112e-06,5.951669476651339e-06,4.261682276124062e-06,8.092733445060723e-06,1.1180820880423428e-05,Unknown
0.09060576899999973,3.994642931996792e-06,3.0859763089353787e-06,5.968514526494414e-06,4.265061957048354e-06,8.10167084751505e-06,1.107259061350242e-05,Unknown
0.0911249999999999,3.953714514182756e-06,3.07440077244885e-06,5.969193312969648e-06,4.271330323738858e-06,8.117188479509752e-06,1.1049280681478006e-05,Unknown
0.09164423100000008,3.887629192903214e-06,3.066573454614783e-06,5.961996091915391e-06,4.273617415727231e-06,8.132670876229494e-06,1.1050632528645664e-05,Unknown
0.09216346200000025,3.829424640196836e-06,3.065095457846808e-06,5.960369846211568e-06,4.273624376774837e-06,8.135149413742552e-06,1.1053283693790714e-05,Unknown
0.09268269200000034,3.801798920672606e-06,3.065407710205272e-06,5.960239175686631e-06,4.273828109150311e-06,8.130881049217968e-06,1.1043427880371944e-05,Unknown
0.09320192299999963,3.793606605863082e-06,3.0649948854325614e-06,5.964759958190413e-06,4.270484196493709e-06,8.133351474857153e-06,1.1017889824931616e-05,Unknown
0.0937211539999998,3.7921005861195615e-06,3.0617386866850957e-06,5.974626274180498e-06,4.2637523456728686e-06,8.144729586080756e-06,1.09964180432206e-05,Unknown
0.09424038499999998,3.786541551149692e-06,3.061379071566664e-06,5.9798766989789305e-06,4.258361886446182e-06,8.16334895677671e-06,1.0986283564186126e-05,Unknown
0.09475961500000007,3.778501409618514e-06,3.0646067035907887e-06,5.979756839026237e-06,4.255100562387939e-06,8.183462548833985e-06,1.0982232342074688e-05,Unknown
0.09527884600000025,3.780806344299092e-06,3.0652005449445965e-06,5.981526562556571e-06,4.250944073853327e-06,8.194369729354005e-06,1.0981562668792784e-05,Unknown
0.09579807700000043,3.7771388378726218e-06,3.064723232810122e-06,5.984873379145963e-06,4.242489134823996e-06,8.196252972993789e-06,1.0983297252152402e-05,Unknown
0.09631730799999971,3.76917952720256e-06,3.064651352452626e-06,5.984248212540486e-06,4.228681909359847e-06,8.196468506061147e-06,1.09829628464474e-05,Unknown
0.0968365379999998,3.776020888147675e-06,3.0644595299971845e-06,5.981714269168761e-06,4.2187406244221645e-06,8.19553612675527e-06,1.0976856035799288e-05,Unknown
0.09735576899999998,3.771750183434789e-06,3.062348106101824e-06,5.98181217042859e-06,4.220514220747936e-06,8.194366169827005e-06,1.0965206183321936e-05,Unknown
0.09787500000000016,3.7513895422106526e-06,3.059376243662879e-06,5.980434217262578e-06,4.226363567799518e-06,8.194576441547815e-06,1.095042234771713e-05,Unknown
0.09839423100000033,3.746442540785455e-06,3.0613366551829323e-06,5.976759662856696e-06,4.229088737906884e-06,8.194460053355068e-06,1.0940335217819308e-05,Unknown
0.09891346199999962,3.740426153350837e-06,3.0665285805101626e-06,5.974561470736378e-06,4.2287655478849145e-06,8.194721962886513e-06,1.0943296930226688e-05,Unknown
0.09943269199999971,3.701690267076489e-06,3.068607720431642e-06,5.973297181568329e-06,4.227295699628365e-06,8.19448510361621e-06,1.095245350430192e-05,Unknown
0.09995192299999989,3.6521667796696768e-06,3.0651463745526746e-06,5.980085897922773e-06,4.228674656716677e-06,8.191355866686756e-06,1.095483936995489e-05,Unknown
0.10047115400000006,3.617353810580424e-06,3.058678051156724e-06,5.998482149402941e-06,4.234262193982597e-06,8.188926659007445e-06,1.0951190446917243e-05,Unknown
0.10099038500000024,3.5916654438897145e-06,3.0530855496636906e-06,6.013551333209447e-06,4.241285034969772e-06,8.190726999721736e-06,1.0949467699436796e-05,Unknown
0.10150961500000033,3.5599220830479587e-06,3.050709721808502e-06,6.017184401507895e-06,4.244967051925407e-06,8.195317415728555e-06,1.0956893360360034e-05,Unknown
0.10202884599999962,3.511734939987766e-06,3.054824779729778e-06,6.016576063965635e-06,4.244917820979394e-06,8.200146633004878e-06,1.0973067635811968e-05,Unknown
0.1025480769999998,3.4689240367260206e-06,3.068464700650189e-06,6.0177588741801655e-06,4.246746476310475e-06,8.203101974640325e-06,1.098436274489438e-05,Unknown
0.10306730799999997,3.4534214021361425e-06,3.085064260926982e-06,6.021404849599242e-06,4.251031141291072e-06,8.205448796534516e-06,1.0983328432272728e-05,Unknown
0.10358653800000006,3.4497885358537385e-06,3.0939210008061984e-06,6.026474485344304e-06,4.25317265680825e-06,8.213169507004088e-06,1.0977127942639498e-05,Unknown
0.10410576900000024,3.4469147075035497e-06,3.0954788493887285e-06,6.031577640527836e-06,4.253072548011268e-06,8.2288865132481e-06,1.0970969514800482e-05,Unknown
0.10462500000000041,3.4504564759125336e-06,3.0926541359640745e-06,6.031852863855192e-06,4.253978792619428e-06,8.246366719425723e-06,1.0964462961739209e-05,Unknown
0.1051442309999997,3.457585687098465e-06,3.08466747554242e-06,6.026095177454674e-06,4.255481682529336e-06,8.259587976431668e-06,1.0955628047565454e-05,Unknown
0.10566346199999987,3.462985937332256e-06,3.078390223954153e-06,6.023433878417202e-06,4.2559402432769685e-06,8.268992988171907e-06,1.0945232498758176e-05,Unknown
0.10618269199999997,3.464590838464508e-06,3.08047805592566e-06,6.027268671517504e-06,4.255841641510511e-06,8.27483646624966e-06,1.0937189556171992e-05,Unknown
0.10670192300000014,3.4628988694388223e-06,3.0853906888410684e-06,6.032262852005756e-06,4.255732151393483e-06,8.276261757777739e-06,1.0932668986857306e-05,Unknown
0.10722115400000032,3.463226180780832e-06,3.081638549419416e-06,6.0370571507642685e-06,4.2557036459406455e-06,8.27572731461339e-06,1.093066923524368e-05,Unknown
0.1077403850000005,3.4565357226255106e-06,3.0627142167170352e-06,6.04191681108748e-06,4.251911030406231e-06,8.276712475427346e-06,1.0931189230377904e-05,Unknown
0.1082596149999997,3.4422070449881e-06,3.0362387047111427e-06,6.044352979609095e-06,4.2422436332682935e-06,8.279644055772881e-06,1.0935293717731654e-05,Unknown
0.10877884599999987,3.444822795589461e-06,3.016446995023068e-06,6.042341558532904e-06,4.235281453531158e-06,8.28262920480459e-06,1.094259767492895e-05,Unknown
0.10929807700000005,3.452370640006031e-06,3.019822510397421e-06,6.039219313943775e-06,4.235783336007858e-06,8.286347572594642e-06,1.0951350999234796e-05,Unknown
0.10981730800000022,3.443215914315452e-06,3.0699112381807182e-06,6.03959726836547e-06,4.236358435403341e-06,8.293422081864892e-06,1.095971313329228e-05,Unknown
0.11033653800000032,3.434354806472928e-06,3.164432848013961e-06,6.045465089038951e-06,4.230868648957013e-06,8.303595547744786e-06,1.0966257372011832e-05,Unknown
0.11085576900000049,3.434777142510352e-06,3.263549373895697e-06,6.056569359145328e-06,4.220578245645132e-06,8.31632575605936e-06,1.097162122016136e-05,Unknown
0.11137499999999978,3.4391064691331022e-06,3.336375945694344e-06,6.0640169387155575e-06,4.210396232095529e-06,8.33031126543e-06,1.097779786168046e-05,Unknown
0.11189423099999996,3.441206843618904e-06,3.3780820025783554e-06,6.064114185458661e-06,4.203785961903197e-06,8.33938806250255e-06,1.0986353796155912e-05,Unknown
0.11241346200000013,3.438188129050172e-06,3.389268214272163e-06,6.068984629801744e-06,4.201427773422216e-06,8.340124062542025e-06,1.0995925975218296e-05,Unknown
0.11293269200000022,3.4403920105995457e-06,3.36982466651466e-06,6.08271531649053e-06,4.204250746243948e-06,8.337548759507988e-06,1.1002640826626007e-05,Unknown
0.1134519230000004,3.450083366559705e-06,3.3310441849295e-06,6.098499658623414e-06,4.2131807773816e-06,8.336409479692612e-06,1.1006884015631674e-05,Unknown
0.11397115399999969,3.45350762236977e-06,3.2981770108076902e-06,6.115867904055491e-06,4.223988239467391e-06,8.336310749128477e-06,1.1011882023722038e-05,Unknown
0.11449038499999986,3.4474904305580133e-06,3.287273416319113e-06,6.138671706701892e-06,4.230743206406668e-06,8.336433969275626e-06,1.1017526879876743e-05,Unknown
0.11500961499999995,3.440921030410344e-06,3.287707470877931e-06,6.171147193722317e-06,4.2336756983657145e-06,8.338201835365751e-06,1.1024373066075583e-05,Unknown
0.11552884600000013,3.4413590348917864e-06,3.2877465496225384e-06,6.213495272751636e-06,4.234302317813696e-06,8.350055177836461e-06,1.1035005476500958e-05,Unknown
0.1160480770000003,3.4561725829768123e-06,3.289459298937924e-06,6.254961872545336e-06,4.226932123988942e-06,8.382065039813137e-06,1.1047997223928017e-05,Unknown
0.11656730800000048,3.4728481016486086e-06,3.2967139174673184e-06,6.284752313323857e-06,4.197583437516627e-06,8.428253098947507e-06,1.1057878333862655e-05,Unknown
0.11708653799999968,3.474023461318757e-06,3.3116201219631504e-06,6.305087217730133e-06,4.143765018415949e-06,8.472844337590394e-06,1.1059608919109265e-05,Unknown
0.11760576899999986,3.4724575503821683e-06,3.328404974503017e-06,6.324591805692349e-06,4.092845630551739e-06,8.50984799632046e-06,1.105217530728766e-05,Unknown
0.11812500000000004,3.4719000839767545e-06,3.342104537458201e-06,6.347912806767055e-06,4.068577653449191e-06,8.543404348011004e-06,1.1041186175925652e-05,Unknown
0.11864423100000021,3.465465113277098e-06,3.355545398097776e-06,6.370204778773281e-06,4.062889970750698e-06,8.578509416275908e-06,1.1035237862726887e-05,Unknown
0.11916346200000039,3.468529195331071e-06,3.3769339461932285e-06,6.384050145402093e-06,4.067375377634838e-06,8.617147837922101e-06,1.1036775134223052e-05,Unknown
0.11968269200000048,3.4768394108834498e-06,3.41587826921022e-06,6.390049600668208e-06,4.0834156556032495e-06,8.661490698525608e-06,1.1033370275121798e-05,Unknown
0.12020192299999977,3.4762359988125784e-06,3.4578682410855785e-06,6.392242670985716e-06,4.098770144164654e-06,8.71576362742282e-06,1.1000285779235393e-05,Unknown
0.12072115399999994,3.4767404600632483e-06,3.482238629575607e-06,6.3917640035502185e-06,4.097614286049359e-06,8.779474118161926e-06,1.0927909646490117e-05,Unknown
0.12124038500000012,3.476116243431345e-06,3.494166348353476e-06,6.387048118161173e-06,4.080931931444437e-06,8.842873742995703e-06,1.0836225081933622e-05,Unknown
0.12175961500000021,3.4706206841596656e-06,3.506170456971544e-06,6.382263310592793e-06,4.0535844218679705e-06,8.895118458964863e-06,1.0744817424943964e-05,Unknown
0.12227884600000039,3.468024545327789e-06,3.52371783292856e-06,6.382465861535543e-06,4.008796448908637e-06,8.932935791365238e-06,1.065582826930589e-05,Unknown
0.12279807699999967,3.465433080778634e-06,3.5403515031326195e-06,6.380327212352523e-06,3.939117605618706e-06,8.961546704663456e-06,1.0580244504782823e-05,Unknown
0.12331730799999985,3.468069728277879e-06,3.5469296921683584e-06,6.371747594927474e-06,3.846574234415695e-06,8.986577873779127e-06,1.0554576335943536e-05,Unknown
0.12383653799999994,3.483033788908993e-06,3.544937789606092e-06,6.3668876813331e-06,3.735497774509577e-06,9.005637210371027e-06,1.0557673036088876e-05,Unknown
0.12435576900000012,3.4995457332008035e-06,3.53858875047749e-06,6.373568790670953e-06,3.606399265899372e-06,9.01484276668441e-06,1.0467927037250451e-05,Unknown
0.12487500000000029,3.511563909700379e-06,3.530302967317256e-06,6.390193219267771e-06,3.463314765574312e-06,9.0156431754895e-06,1.0264758822105415e-05,Unknown
0.12539423100000047,3.524203099951067e-06,3.525041050860806e-06,6.410563339327356e-06,3.3258314997801614e-06,9.013844321813086e-06,1.0095246076269835e-05,Unknown
0.12591346199999975,3.5368371852951044e-06,3.5246970301929337e-06,6.428148764409824e-06,3.220233358356948e-06,9.013780254837936e-06,1.0037713786718136e-05,Unknown
0.12643269199999985,3.541236197963692e-06,3.524451515115266e-06,6.442723440880827e-06,3.1519276703376824e-06,9.013005236216749e-06,1.004453828810234e-05,Unknown
0.12695192300000002,3.530276144563373e-06,3.5284395744331817e-06,6.460200698469913e-06,3.105872637924641e-06,9.013634635827014e-06,1.007118980334906e-05,Unknown
0.1274711540000002,3.506425290785762e-06,3.539603240440552e-06,6.487537751735879e-06,3.068442807211745e-06,9.022549237105496e-06,1.010171758501234e-05,Unknown
0.12799038500000037,3.483668509896374e-06,3.546477078064445e-06,6.522115651049232e-06,3.036307595243686e-06,9.03613031153818e-06,1.0099859239786797e-05,Unknown
0.12850961500000047,3.471605260079568e-06,3.5457728503498496e-06,6.5434878233700734e-06,3.0112610238741304e-06,9.046365726365826e-06,9.999711827611973e-06,Unknown
0.12902884599999975,3.468633145071753e-06,3.5407031900633527e-06,6.5440375915171975e-06,2.992571101764041e-06,9.052379209090978e-06,9.797875968702249e-06,Unknown
0.12954807699999993,3.469576076823409e-06,3.5248971777882003e-06,6.540038771306237e-06,2.9854875590433045e-06,9.059211549491232e-06,9.58830143922197e-06,Unknown
0.1300673080000001,3.4602850353618234e-06,3.494373395042825e-06,6.540371061365496e-06,2.9833557806116486e-06,9.073123853042252e-06,9.470585506471107e-06,Unknown
0.1305865380000002,3.4399668449054665e-06,3.449917254188776e-06,6.546889947619507e-06,2.929236116596356e-06,9.093758012196493e-06,9.458905528067138e-06,Unknown
0.13110576900000037,3.432299765769044e-06,3.390376491198464e-06,6.557551101336974e-06,2.793022924801276e-06,9.108625268310134e-06,9.464507201001957e-06,Unknown
0.13162499999999966,3.433799474476596e-06,3.325788452894565e-06,6.565052676615775e-06,2.6447176827515497e-06,9.106302208815677e-06,9.428270824138005e-06,Unknown
0.13214423099999983,3.42855518660297e-06,3.2765845503886816e-06,6.566142844352267e-06,2.5530055236755937e-06,9.090051131744905e-06,9.420130654641662e-06,Unknown
0.132663462,3.4282296455172126e-06,3.252049173338191e-06,6.5572639659429225e-06,2.5103030722147157e-06,9.073828435820004e-06,9.462111577621276e-06,Unknown
0.1331826920000001,3.4382905613954934e-06,3.245866261989329e-06,6.528852245462443e-06,2.4883766478275366e-06,9.070597716661e-06,9.50268885181236e-06,Unknown
0.13370192300000028,3.4508939775755465e-06,3.24836229365488e-06,6.482930571211819e-06,2.477599073482765e-06,9.08001089655019e-06,9.48981462630686e-06,Unknown
0.13422115400000045,3.462547981489742e-06,3.2518751257934704e-06,6.445851172512828e-06,2.473761389882952e-06,9.09190634685855e-06,9.299813587384803e-06,Unknown
0.13474038499999974,3.474705632848869e-06,3.2500466976871484e-06,6.4305948690402085e-06,2.466804939227904e-06,9.099283813944011e-06,8.93736150869337e-06,Unknown
0.13525961499999983,3.4899348706510413e-06,3.2453462897827e-06,6.423873800547604e-06,2.4563102652487405e-06,9.102003542812469e-06,8.580217981528028e-06,Unknown
0.135778846,3.49779124743488e-06,3.245912296722935e-06,6.415761981227664e-06,2.4377398231395543e-06,9.108389139838567e-06,8.314479202049775e-06,Unknown
0.13629807700000018,3.4928902521316817e-06,3.250909101329252e-06,6.407254930941255e-06,2.39940507880424e-06,9.125234402335288e-06,8.114203133415295e-06,Unknown
0.13681730800000036,3.489650130390872e-06,3.258881511029165e-06,6.404904581497384e-06,2.3510278860436745e-06,9.144137007601344e-06,7.979569317810674e-06,Unknown
0.13733653800000045,3.49377823954018e-06,3.27257791182756e-06,6.40387425177841e-06,2.312203339906108e-06,9.155160470240582e-06,7.940623719941138e-06,Unknown
0.13785576899999974,3.497973587566909e-06,3.2855777808860407e-06,6.392108584166176e-06,2.289426708330384e-06,9.162692318461284e-06,7.956510477041194e-06,Unknown
0.13837499999999991,3.498532080571634e-06,3.291892217165851e-06,6.3759574734419545e-06,2.27709199784893e-06,9.176090143505709e-06,7.949474129618068e-06,Unknown
0.1388942310000001,3.499148518084541e-06,3.2952125918254453e-06,6.366935569627517e-06,2.267792264785248e-06,9.19352530468888e-06,7.920125806978383e-06,Unknown
0.13941346200000027,3.5015410285250465e-06,3.2996403276163427e-06,6.362230726500749e-06,2.261377151469719e-06,9.200681535391736e-06,7.905521481537953e-06,Unknown
0.13993269200000036,3.502531615991333e-06,3.3075899625537653e-06,6.354522729747965e-06,2.25978633599834e-06,9.183516634007285e-06,7.904931022987603e-06,Unknown
0.14045192299999965,3.502850070916961e-06,3.3162984019274498e-06,6.339180403001174e-06,2.261562813304503e-06,9.142972032889184e-06,7.90537786070597e-06,Unknown
0.14097115399999982,3.503562581671863e-06,3.319460136253512e-06,6.3173994974859725e-06,2.265140378852914e-06,9.09957281709801e-06,7.9055540474399e-06,Unknown
0.141490385,3.5070411202526485e-06,3.319656271010856e-06,6.294076412783496e-06,2.2693781482755044e-06,9.07349428798878e-06,7.906011532341715e-06,Unknown
0.1420096150000001,3.5139537843844824e-06,3.3203948570638365e-06,6.269360405068382e-06,2.271246766037067e-06,9.063599415270807e-06,7.914923512942218e-06,Unknown
0.14252884600000026,3.519312782673543e-06,3.319995412425312e-06,6.239979705116298e-06,2.2684488325958147e-06,9.057959539246736e-06,7.945342905040115e-06,Unknown
0.14304807700000044,3.5172935904681056e-06,3.321783089569833e-06,6.207988853659944e-06,2.2634091864090016e-06,9.049583214488487e-06,7.994659665923853e-06,Unknown
0.14356730799999973,3.5082910071683224e-06,3.321681942850757e-06,6.1822732620801216e-06,2.260942050551093e-06,9.037339898981807e-06,8.047782636856162e-06,Unknown
0.14408653799999982,3.514840813538408e-06,3.316068383571592e-06,6.166115698173052e-06,2.2607969477012197e-06,9.026305107559577e-06,8.09457836061301e-06,Unknown
0.144605769,3.548516948275354e-06,3.312600882153505e-06,6.153564144184996e-06,2.261214417023603e-06,9.02192898214168e-06,8.133061114458365e-06,Unknown
0.14512500000000017,3.58024217490642e-06,3.3126826740142425e-06,6.136924309404469e-06,2.2643125429522294e-06,9.024343078402168e-06,8.165345742304863e-06,Unknown
0.14564423100000035,3.5925502153140477e-06,3.3123640074059704e-06,6.1148585616330746e-06,2.2653598062403164e-06,9.029182344548474e-06,8.194657256029986e-06,Unknown
0.14616346199999963,3.589308230318797e-06,3.309379624386549e-06,6.0916012009539e-06,2.2630856093092625e-06,9.02383260510192e-06,8.221612829077393e-06,Unknown
0.14668269199999973,3.55320144434367e-06,3.30478301577463e-06,6.066829445938824e-06,2.2641869644063204e-06,8.999145072854381e-06,8.246346522429171e-06,Unknown
0.1472019229999999,3.493506709766489e-06,3.299461307648366e-06,6.044492955584646e-06,2.263260111559018e-06,8.964611981879948e-06,8.269771975075168e-06,Unknown
0.14772115400000008,3.468134434148976e-06,3.2933071326015377e-06,6.032359553712021e-06,2.261313837843913e-06,8.939407858659002e-06,8.285702866123077e-06,Unknown
0.14824038500000025,3.4782768461490743e-06,3.2897365723604567e-06,6.033799917707382e-06,2.269316245838282e-06,8.934012954614384e-06,8.285384627656191e-06,Unknown
0.14875961500000034,3.4816518782473317e-06,3.287762926970794e-06,6.052136183552357e-06,2.2783116855160127e-06,8.94036689915847e-06,8.269764696892668e-06,Unknown
0.14927884599999963,3.4758477131757903e-06,3.28109649974645e-06,6.079173862496523e-06,2.277029473379181e-06,8.94532150587906e-06,8.250032025560364e-06,Unknown
0.1497980769999998,3.4703635323814927e-06,3.2719954630477717e-06,6.101590728386727e-06,2.2691787768227336e-06,8.946689972036042e-06,8.23802693040084e-06,Unknown
0.15031730799999998,3.46998273833933e-06,3.268369143404648e-06,6.119981151884918e-06,2.261344185916699e-06,8.947339713117667e-06,8.235896266060253e-06,Unknown
0.15083653800000008,3.4656637238003063e-06,3.271694990022248e-06,6.141864135271723e-06,2.257949694554849e-06,8.949594841325324e-06,8.238116048259416e-06,Unknown
0.15135576900000025,3.44723770714952e-06,3.272156793984447e-06,6.168442990023882e-06,2.2576645344381577e-06,8.956546571541946e-06,8.239925708563363e-06,Unknown
0.15187500000000043,3.4332096617653347e-06,3.2601059368901497e-06,6.189199364320824e-06,2.2576097731101287e-06,8.96867515586595e-06,8.23974591280929e-06,Unknown
0.1523942309999997,3.43239866090608e-06,3.243877253252119e-06,6.196552857470714e-06,2.2575039819554704e-06,8.982567332572624e-06,8.238287158289472e-06,Unknown
0.1529134619999999,3.433324494558929e-06,3.233462521787006e-06,6.196662540020371e-06,2.257682226111955e-06,8.994036881291123e-06,8.238132059217753e-06,Unknown
0.15343269199999998,3.43356758183677e-06,3.228622008593864e-06,6.19216602651069e-06,2.257516389020533e-06,9.000406404835383e-06,8.241027396576401e-06,Unknown
0.15395192300000016,3.4376699493520585e-06,3.2282824826361576e-06,6.1853178114535135e-06,2.253323604343036e-06,9.001766136660278e-06,8.242853568127297e-06,Unknown
0.15447115400000033,3.441318774754456e-06,3.228901512681009e-06,6.183065122168652e-06,2.2419807822005328e-06,9.00121187225304e-06,8.23812719328253e-06,Unknown
0.15499038499999962,3.4374641304179157e-06,3.228960209451496e-06,6.178567611140043e-06,2.2268597703720543e-06,9.000946431367747e-06,8.228481716108204e-06,Unknown
0.1555096149999997,3.427315071384255e-06,3.230890898590315e-06,6.159705714848938e-06,2.2126612706802207e-06,9.000557971476769e-06,8.21930810444271e-06,Unknown
0.1560288459999999,3.413112573835047e-06,3.233580661204916e-06,6.122098792443653e-06,2.198620528984295e-06,9.00115854526083e-06,8.21613414200658e-06,Unknown
0.15654807700000006,3.416760303617904e-06,3.2335553715588125e-06,6.060977175950948e-06,2.1863856187754816e-06,9.002337711806278e-06,8.219916223332362e-06,Unknown
0.15706730800000024,3.455584899082034e-06,3.2317814720209232e-06,5.975388609831219e-06,2.180666586754776e-06,9.002061339013382e-06,8.224247724203031e-06,Unknown
0.15758653800000033,3.492151771481441e-06,3.2315631369617816e-06,5.879731318938943e-06,2.179687332098472e-06,9.001795206461937e-06,8.225673284973287e-06,Unknown
0.15810576899999962,3.5036270031385395e-06,3.230969310185913e-06,5.80000511865641e-06,2.181810315850342e-06,9.001453409752942e-06,8.223488812179982e-06,Unknown
0.1586249999999998,3.507860560647658e-06,3.227402706326636e-06,5.749110450808053e-06,2.1891737845958986e-06,9.000655849385883e-06,8.218570009580596e-06,Unknown
0.15914423099999997,3.5134151562342885e-06,3.220303111365212e-06,5.714664622232663e-06,2.197318366519891e-06,8.995391331724998e-06,8.216488250163026e-06,Unknown
0.15966346200000014,3.5373346690578946e-06,3.208229957758624e-06,5.6832858058756215e-06,2.201645424598246e-06,8.979239363478318e-06,8.216490419135114e-06,Unknown
0.16018269200000024,3.578347267638665e-06,3.1937658829237554e-06,5.656803295682748e-06,2.2043235298629503e-06,8.956343829570877e-06,8.216141412703717e-06,Unknown
0.1607019230000004,3.596287261197893e-06,3.181765243840966e-06,5.643905082468336e-06,2.20856572102302e-06,8.92935605838966e-06,8.216975591176741e-06,Unknown
0.1612211539999997,3.591229401225004e-06,3.172027230214039e-06,5.642969260240275e-06,2.215027528593321e-06,8.899023823295786e-06,8.21807857339148e-06,Unknown
0.16174038499999988,3.5896944816682327e-06,3.1594662144099665e-06,5.643818351192867e-06,2.216552012241433e-06,8.875314368602948e-06,8.219506286837028e-06,Unknown
0.16225961499999997,3.5895056076124906e-06,3.1399426886262462e-06,5.643538954551468e-06,2.211261039423138e-06,8.862926320514622e-06,8.221930108788355e-06,Unknown
0.16277884600000014,3.5911165260907027e-06,3.1187395295838005e-06,5.63912907876138e-06,2.212190559896616e-06,8.857593584427421e-06,8.22699474294455e-06,Unknown
0.16329807700000032,3.591769429850664e-06,3.1050544850210705e-06,5.626124025218705e-06,2.2221707163438333e-06,8.855702769497766e-06,8.236006716974875e-06,Unknown
0.1638173080000005,3.5908615395564428e-06,3.09852041119767e-06,5.606258206940106e-06,2.229660769915444e-06,8.852109879215267e-06,8.24572314178449e-06,Unknown
0.1643365379999997,3.604745060738625e-06,3.093468494634679e-06,5.580065584911098e-06,2.2320213855584665e-06,8.84144009681381e-06,8.254304716127567e-06,Unknown
0.16485576899999987,3.619417762155913e-06,3.086574639731377e-06,5.548301986127976e-06,2.2331708201759064e-06,8.824538158800353e-06,8.262189608614286e-06,Unknown
0.16537500000000005,3.614688827530318e-06,3.081884143234397e-06,5.517709065350876e-06,2.2332195420244945e-06,8.805670805787905e-06,8.26849266944549e-06,Unknown
0.16589423100000023,3.6073130760613855e-06,3.08291059721502e-06,5.491393905164541e-06,2.2330892390812524e-06,8.78583579597806e-06,8.272372489130789e-06,Unknown
0.1664134620000004,3.6160872014431728e-06,3.0764224328469744e-06,5.4659766927974896e-06,2.2354317999013185e-06,8.761541608712594e-06,8.27336939183211e-06,Unknown
0.1669326920000005,3.637130156181121e-06,3.053944098558143e-06,5.4433495097208496e-06,2.23999176118397e-06,8.729312416340804e-06,8.27340038856356e-06,Unknown
0.16745192299999978,3.6554587501020896e-06,3.033899843875663e-06,5.430027867792258e-06,2.2446779702553662e-06,8.687632406084412e-06,8.273030684885256e-06,Unknown
0.16797115399999996,3.661683308408889e-06,3.0320032542386474e-06,5.426022727594026e-06,2.247920319908209e-06,8.63382914754877e-06,8.2693739013773e-06,Unknown
0.16849038500000013,3.661253329130262e-06,3.0406441603173725e-06,5.426192175038788e-06,2.2480568834302674e-06,8.569172553847196e-06,8.268443919922e-06,Unknown
0.16900961500000022,3.6599287795490673e-06,3.0482471460662515e-06,5.4265592277898e-06,2.2449277380652003e-06,8.50523451028792e-06,8.276102324621353e-06,Unknown
0.1695288460000004,3.657702746879229e-06,3.050096128836015e-06,5.425442065911284e-06,2.241176747088357e-06,8.451846623598522e-06,8.283938432083068e-06,Unknown
0.1700480769999997,3.659834426759656e-06,3.047614967687771e-06,5.424117481576022e-06,2.239291367274596e-06,8.408388922943064e-06,8.286880610678473e-06,Unknown
0.17056730799999986,3.6658058151610855e-06,3.045996640537888e-06,5.4241932252803696e-06,2.238817842408372e-06,8.370675276713869e-06,8.287575246967584e-06,Unknown
0.17108653799999995,3.6677170368274576e-06,3.046484931517503e-06,5.425285797929136e-06,2.2350236924767937e-06,8.334602803296611e-06,8.289147956193548e-06,Unknown
0.17160576900000013,3.660342333748332e-06,3.047078987112048e-06,5.42610112687429e-06,2.228315735026907e-06,8.300606289808423e-06,8.296144507416043e-06,Unknown
0.1721250000000003,3.639288705853949e-06,3.0472913736521226e-06,5.425044091927048e-06,2.2273006710283327e-06,8.276674283562811e-06,8.309370412787983e-06,Unknown
0.17264423100000048,3.615924232182261e-06,3.047512760934747e-06,5.421693176057407e-06,2.229151391567118e-06,8.26733195007777e-06,8.329458709834832e-06,Unknown
0.17316346199999977,3.605653393777533e-06,3.0481624223066778e-06,5.418315103072385e-06,2.228763530945689e-06,8.266157390498866e-06,8.366233414444954e-06,Unknown
0.17368269199999986,3.603603380604109e-06,3.0489739304515355e-06,5.417471350136909e-06,2.2288208905114774e-06,8.266154686998342e-06,8.424233299435217e-06,Unknown
0.17420192300000004,3.603609173678196e-06,3.049317594178388e-06,5.418013776185158e-06,2.22721264974068e-06,8.26621634826249e-06,8.478944523877377e-06,Unknown
0.1747211540000002,3.6026115977528446e-06,3.0488909886419003e-06,5.4173779678365046e-06,2.223826539108378e-06,8.266338342894173e-06,8.501781985205944e-06,Unknown
0.1752403850000004,3.595535104484992e-06,3.047693908127755e-06,5.416001587996113e-06,2.218641602400174e-06,8.265245372501233e-06,8.500812426615226e-06,Unknown
0.17575961500000048,3.5888613211987858e-06,3.047519785486664e-06,5.41556736342251e-06,2.2114467694447853e-06,8.259785763555264e-06,8.507178706877331e-06,Unknown
0.17627884599999977,3.589827652251821e-06,3.049320831600157e-06,5.4154705126859856e-06,2.2104117887732128e-06,8.246302510695906e-06,8.537271964519168e-06,Unknown
0.17679807699999994,3.596155742568124e-06,3.049255727934607e-06,5.413524398044994e-06,2.2121810427851227e-06,8.224266792294596e-06,8.581202193474882e-06,Unknown
0.17731730800000012,3.608900898694652e-06,3.047627054931941e-06,5.410029241705128e-06,2.2068969883004266e-06,8.197575327140868e-06,8.61894577553272e-06,Unknown
0.1778365380000002,3.620484254827323e-06,3.047629152678127e-06,5.407744877655647e-06,2.202647680140872e-06,8.171294748737804e-06,8.640107384481177e-06,Unknown
0.17835576900000039,3.6188297576729167e-06,3.044080203413227e-06,5.405959356236984e-06,2.203441081433617e-06,8.14405101675876e-06,8.648124736807766e-06,Unknown
0.17887499999999967,3.615220588403775e-06,3.038664457298575e-06,5.397124048439102e-06,2.2021803015985e-06,8.104400404932843e-06,8.64985922415553e-06,Unknown
0.17939423099999985,3.616326089143381e-06,3.038778557680611e-06,5.373714551727695e-06,2.2003887334490124e-06,8.035886121343203e-06,8.648398913421653e-06,Unknown
0.17991346200000002,3.610251044822414e-06,3.0343597887408776e-06,5.341102213265367e-06,2.20027691521281e-06,7.927896545046043e-06,8.645814196904558e-06,Unknown
0.18043269200000012,3.599461330255597e-06,3.022403345321577e-06,5.321390097373011e-06,2.2004599120996943e-06,7.79333915418489e-06,8.644682067567047e-06,Unknown
0.1809519230000003,3.593718517830548e-06,3.017043646436111e-06,5.325519717746938e-06,2.200963304417431e-06,7.669488766742193e-06,8.645287068543339e-06,Unknown
0.18147115400000047,3.5920893168764547e-06,3.017617924027383e-06,5.335177661459182e-06,2.1995828797164013e-06,7.582846325077155e-06,8.64455839188253e-06,Unknown
0.18199038499999975,3.592759240024228e-06,3.0177014313140588e-06,5.337083904813405e-06,2.195799863621325e-06,7.5236318189442015e-06,8.641288344958535e-06,Unknown
0.18250961499999985,3.593688041217039e-06,3.017474760961535e-06,5.3369260735642e-06,2.192368930358128e-06,7.46505256049324e-06,8.641526531337652e-06,Unknown
0.18302884600000002,3.5900514401754965e-06,3.014815657792157e-06,5.338107217481046e-06,2.190739436800403e-06,7.38664735769287e-06,8.64809735578618e-06,Unknown
0.1835480770000002,3.5874784710923007e-06,3.0115465120523204e-06,5.339292592391828e-06,2.1920776909348075e-06,7.279222875803452e-06,8.650445419753395e-06,Unknown
0.18406730800000037,3.5909035093335253e-06,3.011645790612153e-06,5.341045132295882e-06,2.1952120169369304e-06,7.157588335795483e-06,8.636427313590276e-06,Unknown
0.18458653800000047,3.5920881674103966e-06,3.0121258524761067e-06,5.345662764611812e-06,2.196544401168105e-06,7.055923948691088e-06,8.604863305708162e-06,Unknown
0.18510576899999975,3.592555814862221e-06,3.0077688867376444e-06,5.353330676845106e-06,2.196419412377825e-06,6.9889458964624255e-06,8.563838763167861e-06,Unknown
0.18562499999999993,3.5948722358331825e-06,2.998993036811607e-06,5.35825424051344e-06,2.198811813414292e-06,6.945142472792553e-06,8.521365886318002e-06,Unknown
0.1861442310000001,3.593085347401102e-06,2.991258188058324e-06,5.351946395135675e-06,2.203163693072011e-06,6.91092425540823e-06,8.478913227891646e-06,Unknown
0.18666346200000028,3.5940229553469724e-06,2.989707114057778e-06,5.329442655191472e-06,2.198130114141495e-06,6.876343256139002e-06,8.434518172862761e-06,Unknown
0.18718269200000037,3.594731884715801e-06,2.992666346052924e-06,5.292338622141027e-06,2.177216711803833e-06,6.843529740852881e-06,8.386031986967068e-06,Unknown
0.18770192299999966,3.5812745185452355e-06,2.9923136535805924e-06,5.247952786249296e-06,2.1558816643762685e-06,6.82142501970917e-06,8.332985081972598e-06,Unknown
0.18822115399999984,3.569027664921656e-06,2.9863980110485024e-06,5.2067476697485125e-06,2.148598800999622e-06,6.8038220011134885e-06,8.2829474911438e-06,Unknown
0.188740385,3.5702093112219414e-06,2.9759401454073496e-06,5.178491125143236e-06,2.148996504632909e-06,6.786892601375484e-06,8.241869281010685e-06,Unknown
0.1892596150000001,3.5723384730175787e-06,2.961600946967085e-06,5.164511204698456e-06,2.147314315732997e-06,6.775729429606418e-06,8.203043311004495e-06,Unknown
0.18977884600000028,3.5675359792474013e-06,2.949732571775808e-06,5.157924064180834e-06,2.1469284498139524e-06,6.768538681730489e-06,8.161785673656825e-06,Unknown
0.19029807700000045,3.540252029935582e-06,2.9434626333060603e-06,5.153729698350462e-06,2.1553910558473845e-06,6.7684419677018775e-06,8.122886383250675e-06,Unknown
0.19081730799999974,3.48951571042874e-06,2.9404278563957767e-06,5.149188938484155e-06,2.164878468170773e-06,6.771483271172441e-06,8.093190906255907e-06,Unknown
0.19133653799999983,3.449071069312262e-06,2.940102633834946e-06,5.140968130943269e-06,2.165731598467632e-06,6.771254270082687e-06,8.081267355608546e-06,Unknown
0.191855769,3.4329064552386706e-06,2.9403049105256427e-06,5.133387358819443e-06,2.1666611827920084e-06,6.776536413096033e-06,8.092335065150548e-06,Unknown
0.19237500000000018,3.427831021601261e-06,2.939381648887487e-06,5.132850956381272e-06,2.171463738031421e-06,6.78301945128888e-06,8.112297145749725e-06,Unknown
0.19289423100000036,3.413197637801891e-06,2.9393072709435493e-06,5.128069375310395e-06,2.170287229434402e-06,6.781961224451444e-06,8.121828106927443e-06,Unknown
0.19341346199999965,3.380412180714586e-06,2.943418176208803e-06,5.107067291087438e-06,2.1662436030885827e-06,6.775772034629458e-06,8.116328582353202e-06,Unknown
0.19393269199999974,3.358046807756167e-06,2.9569408882490587e-06,5.081481460066663e-06,2.170920150667035e-06,6.7628711256265344e-06,8.096825724768878e-06,Unknown
0.19445192299999992,3.355827786564311e-06,2.9863501836619848e-06,5.061961161227822e-06,2.180841841606608e-06,6.744838363352278e-06,8.078276989125792e-06,Unknown
0.1949711540000001,3.3556624200056323e-06,3.031772824259408e-06,5.040611477626256e-06,2.184769426795333e-06,6.729777567769478e-06,8.080413721193086e-06,Unknown
0.19549038500000027,3.359563619124961e-06,3.080968385381646e-06,5.001951623121476e-06,2.1821949778838623e-06,6.720483460087191e-06,8.068607236069688e-06,Unknown
0.19600961500000036,3.3620345628141003e-06,3.120877053997117e-06,4.9342136001974505e-06,2.181218602872097e-06,6.713693920869056e-06,7.960592189950534e-06,Unknown
0.19652884599999965,3.355823315675656e-06,3.1471681447990182e-06,4.848473325637422e-06,2.187077041397314e-06,6.699526372590385e-06,7.729333501976288e-06,Unknown
0.19704807699999982,3.3487043836653704e-06,3.161049924239852e-06,4.77302720678414e-06,2.1981445941901487e-06,6.660481890298658e-06,7.456554480036643e-06,Unknown
0.197567308,3.3396627186269e-06,3.166533050466649e-06,4.723015116681323e-06,2.210528864637406e-06,6.591516063860261e-06,7.256889423019193e-06,Unknown
0.1980865380000001,3.324106252949033e-06,3.1685042747915598e-06,4.697916741288499e-06,2.2238426399478138e-06,6.504886213182834e-06,7.179051181034952e-06,Unknown
0.19860576900000027,3.309753381336257e-06,3.1704383803476804e-06,4.693109702002223e-06,2.239639910884986e-06,6.409301155861783e-06,7.228152369901149e-06,Unknown
0.19912500000000044,3.305559778467502e-06,3.173799174349822e-06,4.695381591485308e-06,2.254211558902068e-06,6.307895770059416e-06,7.347577540164773e-06,Unknown
0.19964423099999973,3.306857345358478e-06,3.177536967205656e-06,4.69524607208229e-06,2.2598288376607804e-06,6.205746271387411e-06,7.387335768464276e-06,Unknown
0.2001634619999999,3.315958874981553e-06,3.1787983079020302e-06,4.699462080713296e-06,2.258434994632052e-06,6.112074309731432e-06,7.371940358236134e-06,Unknown
0.200682692,3.334119370418964e-06,3.1775601522981287e-06,4.711038656240598e-06,2.258929590219654e-06,6.030197129885977e-06,7.468623758208789e-06,Unknown
0.20120192300000017,3.345835651811361e-06,3.177050775363236e-06,4.7236790352715135e-06,2.2617621910071742e-06,5.952401282901303e-06,7.594583306988164e-06,Unknown
0.20172115400000035,3.3473282240598497e-06,3.179535942114169e-06,4.733539647394623e-06,2.267286275269202e-06,5.877183352162983e-06,7.623346991419006e-06,Unknown
0.20224038499999963,3.339692431425173e-06,3.1853261763010557e-06,4.738493479145522e-06,2.2764860028756508e-06,5.814430721634116e-06,7.616912565651883e-06,Unknown
0.20275961499999973,3.3255127565114324e-06,3.197217032203312e-06,4.739202290621073e-06,2.281515235331808e-06,5.77317023833491e-06,7.6116189133915905e-06,Unknown
0.2032788459999999,3.3185355467131243e-06,3.219128422678338e-06,4.739040280691632e-06,2.281666347587121e-06,5.749942716162276e-06,7.605578941161059e-06,Unknown
0.20379807700000008,3.3187397107116275e-06,3.2479290598331394e-06,4.736422936333573e-06,2.2818535663935828e-06,5.733084528907872e-06,7.6230937323162275e-06,Unknown
0.20431730800000025,3.3187495695561163e-06,3.2750547924707704e-06,4.73154975748433e-06,2.2831315565409727e-06,5.712778815947315e-06,7.641297106766927e-06,Unknown
0.20483653800000035,3.318536790916664e-06,3.293040818901941e-06,4.731322146054892e-06,2.28606808814832e-06,5.686614585707293e-06,7.633446594187746e-06,Unknown
0.20535576899999963,3.3128504835962677e-06,3.3018280184258747e-06,4.735476331804481e-06,2.288181132890117e-06,5.665540739171744e-06,7.615936847003989e-06,Unknown
0.2058749999999998,3.2970621786190536e-06,3.306827598205176e-06,4.7382202980378805e-06,2.288458181998853e-06,5.661935640844796e-06,7.60591539058511e-06,Unknown
0.20639423099999998,3.2762604225858305e-06,3.310142228257787e-06,4.739238336787956e-06,2.286969192089726e-06,5.667851427890407e-06,7.609749990238178e-06,Unknown
0.20691346200000016,3.254762251743001e-06,3.310863509633032e-06,4.739967121125282e-06,2.2834353753321217e-06,5.669475910996637e-06,7.616291463108088e-06,Unknown
0.20743269200000025,3.231034182020789e-06,3.310498480939243e-06,4.737011071422956e-06,2.279595519226818e-06,5.669958713908148e-06,7.609021975605092e-06,Unknown
0.20795192300000043,3.205089439731986e-06,3.310388898230657e-06,4.723334054201559e-06,2.2869177350902185e-06,5.67165318134747e-06,7.601274032250287e-06,Unknown
0.20847115399999971,3.1846447739908613e-06,3.310236121681585e-06,4.698707175287632e-06,2.3193096974421325e-06,5.671095256314073e-06,7.607802879414042e-06,Unknown
0.2089903849999999,3.176376917370031e-06,3.311353158838547e-06,4.672667778051938e-06,2.363792274164452e-06,5.67209706472848e-06,7.616040173736965e-06,Unknown
0.20950961499999998,3.175732987321634e-06,3.312304237836036e-06,4.6546417864070265e-06,2.398727720707399e-06,5.6754389835190605e-06,7.6177221949325856e-06,Unknown
0.21002884600000016,3.175962744468036e-06,3.312013696811784e-06,4.64535883077143e-06,2.422882143959084e-06,5.677377615791166e-06,7.617721333889241e-06,Unknown
0.21054807700000033,3.176334331226105e-06,3.312054871049291e-06,4.641510123424057e-06,2.4432108493058226e-06,5.677524612463752e-06,7.618048151072152e-06,Unknown
0.21106730799999962,3.1794226092928555e-06,3.3118221786330974e-06,4.638218561021778e-06,2.464835461420204e-06,5.676369960772579e-06,7.617799595047239e-06,Unknown
0.2115865379999997,3.1843888579018822e-06,3.3113229035474545e-06,4.623896782120092e-06,2.485388817346305e-06,5.673298441527031e-06,7.6182365683942174e-06,Unknown
0.2121057689999999,3.1824095009180897e-06,3.3107933201308992e-06,4.587649388385054e-06,2.5025911175469777e-06,5.6661784770322565e-06,7.643687049707257e-06,Unknown
0.21262500000000006,3.1659464880669835e-06,3.3094456163282383e-06,4.543057110721733e-06,2.521008955096509e-06,5.653964119097619e-06,7.725070645628261e-06,Unknown
0.21314423100000024,3.1430619556392314e-06,3.3084403889070168e-06,4.518712715862212e-06,2.54408898205044e-06,5.638629178227621e-06,7.837372690291993e-06,Unknown
0.21366346200000041,3.132310648942052e-06,3.309420984416005e-06,4.514680931087491e-06,2.57379783520468e-06,5.6215445260577145e-06,7.926577804598259e-06,Unknown
0.21418269199999962,3.1361380251586536e-06,3.311187782812105e-06,4.51415867160505e-06,2.596738894556337e-06,5.6053976285570775e-06,7.996119976062907e-06,Unknown
0.2147019229999998,3.138469446854051e-06,3.311294158360252e-06,4.510132790884058e-06,2.601490071961822e-06,5.59373688131912e-06,8.090306328656133e-06,Unknown
0.21522115399999997,3.138977428105749e-06,3.3098787920743013e-06,4.497804769950171e-06,2.601089227893662e-06,5.58200743596251e-06,8.192068937497379e-06,Unknown
0.21574038500000015,3.1426077140415e-06,3.308767891435212e-06,4.485047367617599e-06,2.600687328357105e-06,5.564671093637539e-06,8.211608056222105e-06,Unknown
0.21625961500000024,3.1425976408963253e-06,3.308544028552448e-06,4.483078259217391e-06,2.5983570250289828e-06,5.545926402191124e-06,8.262385136548707e-06,Unknown
0.2167788460000004,3.141765194372529e-06,3.308544057884189e-06,4.483097042093858e-06,2.6005017333970558e-06,5.529099054170814e-06,8.580033294200929e-06,Unknown
0.2172980769999997,3.143291783911097e-06,3.308620710852224e-06,4.483484627429794e-06,2.605093646983956e-06,5.513429083118202e-06,8.955815017728616e-06,Unknown
0.21781730799999988,3.1511234554524e-06,3.309079743735316e-06,4.492011764620392e-06,2.611501168249594e-06,5.505182790586148e-06,9.104432533832425e-06,Unknown
0.21833653799999997,3.1683763032048474e-06,3.310749704849837e-06,4.5012397437472364e-06,2.627693107660877e-06,5.505765660191119e-06,9.117120784305696e-06,Unknown
0.21885576900000014,3.1827527503319147e-06,3.3125256069188664e-06,4.507836453737825e-06,2.6547882369134912e-06,5.498924624256539e-06,9.116847701210272e-06,Unknown
0.21937500000000032,3.1906925166005927e-06,3.310553839434261e-06,4.518608854320905e-06,2.6866827999958672e-06,5.47430882523366e-06,9.118658342770611e-06,Unknown
0.2198942310000005,3.193112062847887e-06,3.3089374246277463e-06,4.529967407374065e-06,2.7145825101618567e-06,5.443479810218774e-06,9.129222852696847e-06,Unknown
0.22041346199999978,3.1898762997389798e-06,3.313386841914378e-06,4.533900707490439e-06,2.7299415425518958e-06,5.422849670427976e-06,9.141889239039922e-06,Unknown
0.22093269199999988,3.1954228946907424e-06,3.3179639136289187e-06,4.534116648170061e-06,2.7333118830838844e-06,5.416335692216701e-06,9.150164798547505e-06,Unknown
0.22145192300000005,3.200761080454701e-06,3.318846383926781e-06,4.539261407144059e-06,2.731306636175644e-06,5.41688584987854e-06,9.155187343424854e-06,Unknown
0.22197115400000023,3.192208247467721e-06,3.318813139581051e-06,4.546943226527161e-06,2.724580607571581e-06,5.420530456377752e-06,9.155779007287367e-06,Unknown
0.2224903850000004,3.192843974560184e-06,3.3188008592292903e-06,4.550695064522072e-06,2.715415782653821e-06,5.427452977788966e-06,9.154649737285408e-06,Unknown
0.2230096150000005,3.204236933353313e-06,3.316776364344604e-06,4.550993843707793e-06,2.7115339632875154e-06,5.433955071447357e-06,9.163596090196738e-06,Unknown
0.22352884599999978,3.2064962589947266e-06,3.30971258828927e-06,4.546835392431311e-06,2.710768886189816e-06,5.43782581740366e-06,9.17168944982729e-06,Unknown
0.22404807699999996,3.2089045361619216e-06,3.3004358669009018e-06,4.54192416512974e-06,2.7097201127874287e-06,5.44174049288166e-06,9.156110932020356e-06,Unknown
0.22456730800000013,3.2176550197186707e-06,3.2962433304886734e-06,4.542219839879524e-06,2.7161536634099645e-06,5.4491145977051e-06,9.129758529266682e-06,Unknown
0.22508653800000022,3.218313057975064e-06,3.2972898466428548e-06,4.532923848966841e-06,2.7303176704808986e-06,5.460065483840871e-06,9.11454505387552e-06,Unknown
0.2256057690000004,3.216627808399564e-06,3.2967964913260717e-06,4.5069312640606415e-06,2.7412913603050995e-06,5.469471390823146e-06,9.107964617742897e-06,Unknown
0.2261249999999997,3.2213238082795246e-06,3.293936874499348e-06,4.486809285114405e-06,2.7490907812323945e-06,5.472191378886834e-06,9.101520836527352e-06,Unknown
0.22664423099999986,3.224023920251704e-06,3.2940277200666538e-06,4.482545294465839e-06,2.7651885433286245e-06,5.469026782114718e-06,9.087270362936274e-06,Unknown
0.22716346200000004,3.220773341538915e-06,3.296815737080445e-06,4.482669001812167e-06,2.7892209387717587e-06,5.464606911949421e-06,9.063068998172752e-06,Unknown
0.22768269200000013,3.2002837045607784e-06,3.29679676590425e-06,4.4809919846379375e-06,2.8064129078379776e-06,5.461356407642771e-06,9.04260779675915e-06,Unknown
0.2282019230000003,3.162587024106103e-06,3.2948193030829106e-06,4.474594867577812e-06,2.8118807880456554e-06,5.455341107558523e-06,9.034667696896969e-06,Unknown
0.22872115400000048,3.1390727040999645e-06,3.2955803545303777e-06,4.463765545609438e-06,2.8148549810807074e-06,5.44042995250377e-06,9.033232319903811e-06,Unknown
0.22924038499999977,3.137763491478389e-06,3.297495885495589e-06,4.457583255922022e-06,2.8201237058160114e-06,5.417568869801649e-06,9.03314412308506e-06,Unknown
0.22975961499999986,3.1341380759951823e-06,3.2973723369907363e-06,4.458295008821391e-06,2.8266998324743717e-06,5.392267402818369e-06,9.032584757562004e-06,Unknown
0.23027884600000004,3.123614262002864e-06,3.296148862324616e-06,4.458686229689933e-06,2.8358587608117364e-06,5.370329706556735e-06,9.030555242295716e-06,Unknown
0.2307980770000002,3.119112903345884e-06,3.293595245078013e-06,4.455401943156178e-06,2.8440878244841017e-06,5.356133380913672e-06,9.027776583866691e-06,Unknown
0.2313173080000004,3.12769548041146e-06,3.287080754322956e-06,4.449429576523168e-06,2.8455223752700206e-06,5.346681424777282e-06,9.02538956965376e-06,Unknown
0.23183653800000048,3.142410022440764e-06,3.2787063309975727e-06,4.443812178991737e-06,2.8476016728900484e-06,5.336641533257445e-06,9.022960587700148e-06,Unknown
0.23235576899999977,3.1488553461944606e-06,3.2745997902237715e-06,4.43834147066812e-06,2.862168069042049e-06,5.32706015088482e-06,9.020455005872117e-06,Unknown
0.23287499999999994,3.1488781672996804e-06,3.275536021372309e-06,4.430657390358648e-06,2.889268707912321e-06,5.321119930138076e-06,9.018918740636665e-06,Unknown
0.23339423100000012,3.1509533409776345e-06,3.2764604613519955e-06,4.42445444593172e-06,2.918494820804854e-06,5.318127873023663e-06,9.016474721409457e-06,Unknown
0.2339134620000003,3.1563041232807592e-06,3.2769595842489223e-06,4.423035921191483e-06,2.938125368049285e-06,5.315105292979713e-06,9.01040274607146e-06,Unknown
0.2344326920000004,3.1706897655879425e-06,3.2682194186110075e-06,4.422502227443895e-06,2.9477081934232265e-06,5.3089817358174e-06,9.001745426151212e-06,Unknown
0.23495192299999967,3.1913789732713164e-06,3.221135004751278e-06,4.418957690457124e-06,2.9541573338282717e-06,5.297967570576791e-06,8.995014305164017e-06,Unknown
0.23547115399999985,3.2006774850096554e-06,3.1290814823999344e-06,4.411667334045429e-06,2.9615473166854835e-06,5.282375772743061e-06,8.992414806260412e-06,Unknown
0.23599038500000002,3.197853409199025e-06,3.0280187512394037e-06,4.393695598300498e-06,2.9752286169883265e-06,5.262523683808322e-06,8.989002809811865e-06,Unknown
0.23650961500000012,3.1958090410125747e-06,2.950346126772364e-06,4.3592907798956565e-06,2.994189933875897e-06,5.239540815880307e-06,8.981420616582047e-06,Unknown
0.2370288460000003,3.1932596312133026e-06,2.9004148717018744e-06,4.323324891458501e-06,3.000571648496923e-06,5.21994054667492e-06,8.973363753961577e-06,Unknown
0.23754807700000047,3.1871230673760207e-06,2.873451926214227e-06,4.296910330249784e-06,2.98530248169013e-06,5.211563535865767e-06,8.96534099890023e-06,Unknown
0.23806730799999976,3.179326269268901e-06,2.8636977518058483e-06,4.272223433940823e-06,2.960012297573459e-06,5.21247284159712e-06,8.956915657297501e-06,Unknown
0.23858653799999985,3.168704410194467e-06,2.8621521786433857e-06,4.250078170508946e-06,2.93008848200637e-06,5.2155250564760805e-06,8.951609854113462e-06,Unknown
0.23910576900000002,3.1645776275792774e-06,2.862126570738157e-06,4.2283870885831015e-06,2.9021205787583554e-06,5.217524040360432e-06,8.953992283855783e-06,Unknown
0.2396250000000002,3.1707780801633087e-06,2.860308831967102e-06,4.194523254743491e-06,2.8882699708013555e-06,5.217670269124801e-06,8.962081881129015e-06,Unknown
0.24014423100000037,3.176019947196788e-06,2.8584204339747434e-06,4.146947084457509e-06,2.88297296735192e-06,5.214902911950966e-06,8.958659895091581e-06,Unknown
0.24066346199999966,3.1745084888607766e-06,2.866252447593556e-06,4.090511077895362e-06,2.8753306228563623e-06,5.196899698782107e-06,8.944041117185734e-06,Unknown
0.24118269199999975,3.160285684923257e-06,2.881469044305321e-06,4.034119920844996e-06,2.859345736297891e-06,5.1469390527687845e-06,8.939157594035924e-06,Unknown
0.24170192299999993,3.146928495906951e-06,2.880773218897081e-06,3.989836814091814e-06,2.8391292435988785e-06,5.072975876927691e-06,8.941054885890905e-06,Unknown
0.2422211540000001,3.1592199870605924e-06,2.863286321157645e-06,3.957550353196196e-06,2.83029595938687e-06,4.99945614696792e-06,8.937272824585853e-06,Unknown
0.24274038500000028,3.172991493731317e-06,2.8463264431428213e-06,3.926528101487904e-06,2.8315010386590743e-06,4.936207364450376e-06,8.930264503060072e-06,Unknown
0.24325961500000037,3.1723229897900365e-06,2.83059952607083e-06,3.88876669334664e-06,2.831817724398044e-06,4.8775724127448e-06,8.923540747849117e-06,Unknown
0.24377884599999966,3.1873785228004715e-06,2.8154735783207964e-06,3.852673069660867e-06,2.8318656370216723e-06,4.815558273900871e-06,8.91807920401706e-06,Unknown
0.24429807699999984,3.206125645006432e-06,2.7912085626148934e-06,3.83213240033643e-06,2.8249659019701152e-06,4.745858385737857e-06,8.91574106828482e-06,Unknown
0.244817308,3.207063305198748e-06,2.7432887550922093e-06,3.824656151799375e-06,2.8017384965594543e-06,4.664335207265517e-06,8.91583402852417e-06,Unknown
0.2453365380000001,3.206226449629613e-06,2.6885848755097163e-06,3.822068013559613e-06,2.7771268984625414e-06,4.562156243717238e-06,8.916107239910764e-06,Unknown
0.24585576900000028,3.205691461161607e-06,2.6501998209757343e-06,3.821571365498344e-06,2.7695540675291115e-06,4.436563065599349e-06,8.915089339644688e-06,Unknown
0.24637500000000045,3.2049223302057552e-06,2.625241069768253e-06,3.821999591839197e-06,2.770837897390469e-06,4.309371091504485e-06,8.913599825094619e-06,Unknown
0.24689423099999974,3.204575453900471e-06,2.6018508093214683e-06,3.821679096658782e-06,2.7683252354670324e-06,4.208030779795639e-06,8.915362218092844e-06,Unknown
0.24741346199999992,3.201782577578744e-06,2.5675689421879837e-06,3.822280411315278e-06,2.7649343808093715e-06,4.1296769669496376e-06,8.922017793893927e-06,Unknown
0.247932692,3.2041339290037398e-06,2.5246869967861203e-06,3.825386205404719e-06,2.7640296232391192e-06,4.066516379177943e-06,8.927524285784467e-06,Unknown
0.24845192300000019,3.20639303483224e-06,2.493289844484131e-06,3.82495943646746e-06,2.763910680569194e-06,4.0241078205059964e-06,8.925592256952872e-06,Unknown
0.24897115400000036,3.1975766621641456e-06,2.483951501113462e-06,3.8146124667907256e-06,2.764439436641307e-06,3.999644632043951e-06,8.91830611909036e-06,Unknown
0.24949038499999965,3.178570805731605e-06,2.489676573556781e-06,3.7916163872368576e-06,2.7640081860341684e-06,3.987054285164261e-06,8.906188381170571e-06,Unknown
0.25000961499999974,3.155389763455911e-06,2.4949080692882173e-06,3.755073237938482e-06,2.759181535894029e-06,3.982670447951271e-06,8.884474660084792e-06,Unknown
0.2505288459999999,3.135880859390068e-06,2.4950869350994364e-06,3.7105550232066846e-06,2.7498618807411262e-06,3.98206239540062e-06,8.852992577199663e-06,Unknown
0.2510480770000001,3.120936133126828e-06,2.49617025188536e-06,3.6698608331368953e-06,2.7395865156789468e-06,3.983298445551666e-06,8.816817304271707e-06,Unknown
0.25156730800000027,3.10972092019632e-06,2.4962993943202228e-06,3.637353924159981e-06,2.7323663373868053e-06,3.984531907572486e-06,8.780347717281716e-06,Unknown
0.25208653800000036,3.1027574591523475e-06,2.4871274229054723e-06,3.6022170641345707e-06,2.729226509593745e-06,3.978059767209218e-06,8.744825375513214e-06,Unknown
0.25260576899999965,3.0970356742447288e-06,2.469783477324318e-06,3.546404588582812e-06,2.726934543429212e-06,3.956170448188926e-06,8.708859884634368e-06,Unknown
0.2531249999999998,3.083429844958752e-06,2.459779421023889e-06,3.465480278017492e-06,2.7198274885661983e-06,3.92774285433651e-06,8.670798584583852e-06,Unknown
0.253644231,3.0608269237603628e-06,2.4596412914738807e-06,3.392569865078952e-06,2.7062228368255067e-06,3.90901872250345e-06,8.63102383472305e-06,Unknown
0.2541634620000002,3.0506371694451324e-06,2.457958939468843e-06,3.359028760802225e-06,2.6972547549362797e-06,3.900464292107763e-06,8.594333701466075e-06,Unknown
0.25468269200000027,3.051636695592799e-06,2.458414354824457e-06,3.351573095034562e-06,2.701678206718766e-06,3.889995683923707e-06,8.567985662493247e-06,Unknown
0.25520192300000044,3.052262226939448e-06,2.462676312786639e-06,3.345643178498614e-06,2.708628102541833e-06,3.860984888453602e-06,8.553367931378094e-06,Unknown
0.25572115399999973,3.0658041465706744e-06,2.463012242495129e-06,3.3262583615821737e-06,2.710851338152837e-06,3.8067353624762986e-06,8.545510770005735e-06,Unknown
0.2562403849999999,3.0810960326510037e-06,2.461978726534489e-06,3.301526720162048e-06,2.7100304241081527e-06,3.749760153342476e-06,8.536140093577482e-06,Unknown
0.256759615,3.081910913872669e-06,2.462244879990868e-06,3.288162128579528e-06,2.7055308077227264e-06,3.713541292719231e-06,8.511662943986649e-06,Unknown
0.25727884600000017,3.0820835982527967e-06,2.4623802720334654e-06,3.2801806820589505e-06,2.701202830231474e-06,3.6923021061940023e-06,8.465650165018069e-06,Unknown
0.25779807700000035,3.0822929392123143e-06,2.462610099451804e-06,3.26859244467213e-06,2.6982872540243643e-06,3.668938780911152e-06,8.414207210554104e-06,Unknown
0.25831730799999963,3.071506391015478e-06,2.4617242483129943e-06,3.252290716396772e-06,2.6936297043829657e-06,3.6321606828615833e-06,8.373716485543014e-06,Unknown
0.2588365379999997,3.0569989097197814e-06,2.4579834042939776e-06,3.2328447279636405e-06,2.6831651487358457e-06,3.5838818437653027e-06,8.343512156219335e-06,Unknown
0.2593557689999999,3.046650898416347e-06,2.451387721570273e-06,3.212770665257657e-06,2.671165076650276e-06,3.5364006544494443e-06,8.323624211035963e-06,Unknown
0.2598750000000001,3.034534581807386e-06,2.444503701672883e-06,3.1971633195194727e-06,2.66759916903824e-06,3.493911585513615e-06,8.312341416055732e-06,Unknown
0.26039423100000025,3.016593666447799e-06,2.4402384135209404e-06,3.1917968477565823e-06,2.667487005323138e-06,3.4463179007453005e-06,8.30051854946845e-06,Unknown
0.26091346200000043,3.0068545290407123e-06,2.4381479657308974e-06,3.192706085799196e-06,2.665743484531779e-06,3.3838811220038195e-06,8.287477624608182e-06,Unknown
0.26143269199999963,3.0139650720005787e-06,2.434164697743437e-06,3.1931205467340106e-06,2.66546366561278e-06,3.316457719023211e-06,8.278486376496118e-06,Unknown
0.2619519229999998,3.01811746541156e-06,2.421022212783937e-06,3.193127461432963e-06,2.666487712196867e-06,3.2633243986136643e-06,8.27332075451394e-06,Unknown
0.262471154,3.0123108688531405e-06,2.398543646572727e-06,3.1929226242436243e-06,2.6685060229311687e-06,3.2254550738101792e-06,8.266944805967314e-06,Unknown
0.26299038500000016,3.01271392033334e-06,2.3815940657568737e-06,3.193115311096784e-06,2.669557530225686e-06,3.188970918434826e-06,8.256560253045427e-06,Unknown
0.26350961500000025,3.0144964700657846e-06,2.3772411359591493e-06,3.194693605430881e-06,2.668988702568121e-06,3.14042209655337e-06,8.248708426050723e-06,Unknown
0.26402884600000043,3.017535584532091e-06,2.375374523301956e-06,3.194171755620947e-06,2.668865432679496e-06,3.080698107882977e-06,8.247458275632395e-06,Unknown
0.2645480769999997,3.041255713831015e-06,2.3700306826149284e-06,3.1934855232825817e-06,2.669260492403759e-06,3.032308911559547e-06,8.247268951151076e-06,Unknown
0.2650673079999999,3.0638870047931056e-06,2.360971582075838e-06,3.195896129608583e-06,2.6727448775253454e-06,3.014283169854722e-06,8.246199786890945e-06,Unknown
0.265586538,3.065668185448564e-06,2.355596215326542e-06,3.1976613458285737e-06,2.676760614906043e-06,3.0217577200578197e-06,8.245808857222183e-06,Unknown
0.26610576900000016,3.067849089698674e-06,2.3569686688750315e-06,3.1964486870892448e-06,2.674303744081512e-06,3.0323812592625e-06,8.245560829931992e-06,Unknown
0.26662500000000033,3.0671497183096765e-06,2.355246868410198e-06,3.192822865367544e-06,2.6707374196896733e-06,3.030257748312134e-06,8.242807527306107e-06,Unknown
0.2671442309999996,3.057719723592576e-06,2.35206623578255e-06,3.1880171099460023e-06,2.6749074377755567e-06,3.024049863741517e-06,8.227468524738418e-06,Unknown
0.2676634619999998,3.056737575091487e-06,2.35219155606685e-06,3.1843490630542986e-06,2.689273871359488e-06,3.020932982394005e-06,8.19022260856089e-06,Unknown
0.2681826919999999,3.059743894634356e-06,2.3488435522392824e-06,3.181479672170985e-06,2.707104855961446e-06,3.0235277945174e-06,8.138623766956631e-06,Unknown
0.26870192300000006,3.0533618610057576e-06,2.343872469869508e-06,3.17823248208352e-06,2.715029398744421e-06,3.042100729607792e-06,8.086908838464642e-06,Unknown
0.26922115400000024,3.034274261315967e-06,2.3423698528655056e-06,3.1806938221182845e-06,2.7153348391251605e-06,3.0651583612425864e-06,8.039638811782235e-06,Unknown
0.2697403850000004,3.002470177552571e-06,2.3421885234689303e-06,3.1922596711661475e-06,2.71512157915922e-06,3.074319830512757e-06,7.99807765519388e-06,Unknown
0.2702596149999996,2.9722384457987437e-06,2.3418589610398013e-06,3.2046688464555744e-06,2.711971887264652e-06,3.0659926125807277e-06,7.965123844115438e-06,Unknown
0.2707788459999998,2.959329458613996e-06,2.3411330080241703e-06,3.202354643224741e-06,2.709718007546894e-06,3.0465620481808434e-06,7.939785078432244e-06,Unknown
0.27129807699999997,2.957497837709856e-06,2.3412987360979865e-06,3.178839646090942e-06,2.709696657487802e-06,3.033411002501345e-06,7.917552337239025e-06,Unknown
0.27181730800000015,2.956955629458776e-06,2.343619183629298e-06,3.1543672114506944e-06,2.70855416516422e-06,3.029115145775102e-06,7.895694592033175e-06,Unknown
0.27233653800000024,2.94877220227367e-06,2.352628669957265e-06,3.142780617652003e-06,2.7121951195116827e-06,3.027725322757463e-06,7.87628661739579e-06,Unknown
0.2728557690000004,2.919836983300512e-06,2.365446702961198e-06,3.135008019952938e-06,2.7168856503348262e-06,3.024422941007914e-06,7.861575740928502e-06,Unknown
0.2733749999999997,2.8875614876440854e-06,2.3684200923573857e-06,3.1170120497006406e-06,2.712253358115979e-06,3.00369201231346e-06,7.848208206292373e-06,Unknown
0.2738942309999999,2.8764916978280884e-06,2.365818234981814e-06,3.072397026055148e-06,2.7096361738631203e-06,2.9732429098353764e-06,7.834406440500782e-06,Unknown
0.27441346200000005,2.884834000418304e-06,2.3679256945037907e-06,3.005715075156787e-06,2.7145835081638214e-06,2.9581340012963773e-06,7.825491868050823e-06,Unknown
0.27493269200000015,2.915170878245595e-06,2.365859777791297e-06,2.941475291154341e-06,2.7142622706684764e-06,2.9587025527476155e-06,7.823571099696987e-06,Unknown
0.2754519230000003,2.9562526191659043e-06,2.3574530218990463e-06,2.8884850862719262e-06,2.711698828745119e-06,2.962504308015913e-06,7.822778078928862e-06,Unknown
0.2759711540000005,2.9804847841745904e-06,2.3513408634411165e-06,2.8328270621791186e-06,2.718114085395889e-06,2.959252058895606e-06,7.818966325862385e-06,Unknown
0.2764903849999998,2.9850253968801117e-06,2.3477458904913564e-06,2.766352357808933e-06,2.7333494122609647e-06,2.936976134497644e-06,7.81447805731629e-06,Unknown
0.2770096149999999,2.983654326882382e-06,2.343688148644525e-06,2.713121914831802e-06,2.747694757623655e-06,2.8943348650384097e-06,7.811895639386342e-06,Unknown
0.27752884600000005,2.9823854048056677e-06,2.338691699035489e-06,2.694960890607712e-06,2.752611534574123e-06,2.8458294228734457e-06,7.809752982603223e-06,Unknown
0.2780480770000002,2.983352416924534e-06,2.336660089366799e-06,2.693772644260052e-06,2.752228165883402e-06,2.809716551149712e-06,7.804688094146113e-06,Unknown
0.2785673080000004,2.9868633592398347e-06,2.337468805325976e-06,2.6955840145196317e-06,2.751293003063214e-06,2.7951591869234712e-06,7.795427209621166e-06,Unknown
0.2790865380000005,2.991715642439339e-06,2.336014742480007e-06,2.700001911978087e-06,2.7482020909860624e-06,2.7961190961062624e-06,7.78649291424531e-06,Unknown
0.2796057689999998,3.0101175721824467e-06,2.3357377321009443e-06,2.699750456238521e-06,2.749101229472016e-06,2.799136174079821e-06,7.782851191659685e-06,Unknown
0.28012499999999996,3.040708155811045e-06,2.336465854349264e-06,2.7031084760219147e-06,2.7564699338943917e-06,2.7993572729187333e-06,7.783065626865577e-06,Unknown
0.28064423100000013,3.0559628908479718e-06,2.3337398748217314e-06,2.715777015566043e-06,2.7603644129630595e-06,2.8004150172889594e-06,7.785276549084545e-06,Unknown
0.2811634620000003,3.055343948920875e-06,2.3307645858039697e-06,2.7244374030815053e-06,2.7603665187214554e-06,2.798423858397494e-06,7.786699396567641e-06,Unknown
0.2816826920000004,3.044567613215133e-06,2.326889674800209e-06,2.725223586753271e-06,2.761856052607781e-06,2.793068189918007e-06,7.783130555903136e-06,Unknown
0.2822019229999997,3.005526190773249e-06,2.3261551663203225e-06,2.726057795390749e-06,2.7640687540763785e-06,2.794518563807845e-06,7.778548083948529e-06,Unknown
0.28272115399999986,2.959275214273327e-06,2.346793154950745e-06,2.730953539825227e-06,2.766297703856434e-06,2.807270683161127e-06,7.778743927402047e-06,Unknown
0.28324038500000004,2.938810956905874e-06,2.394794797736822e-06,2.7273774754289816e-06,2.7651409538403704e-06,2.825095272312944e-06,7.784930886340303e-06,Unknown
0.28375961500000013,2.933500112461289e-06,2.4430581340706e-06,2.705350239487367e-06,2.758403702468405e-06,2.828430778871754e-06,7.802291305250517e-06,Unknown
0.2842788460000003,2.929949698469348e-06,2.465333837635057e-06,2.682183575303475e-06,2.7517981829411307e-06,2.824858444774365e-06,7.843395338439866e-06,Unknown
0.2847980770000005,2.905086673276813e-06,2.4683331429085253e-06,2.6679227294707314e-06,2.748504091276032e-06,2.834159799421617e-06,7.921017032184529e-06,Unknown
0.28531730799999977,2.85056999173947e-06,2.467874609238049e-06,2.6540019973721417e-06,2.7463396492371942e-06,2.830214424336412e-06,8.028615648344311e-06,Unknown
0.28583653799999986,2.8149200912865187e-06,2.4686644702727843e-06,2.641336450621761e-06,2.743330772360842e-06,2.811545434790264e-06,8.124636060686106e-06,Unknown
0.28635576900000004,2.814375640807301e-06,2.471710680454855e-06,2.6426192361580235e-06,2.738800811998519e-06,2.8072799193446915e-06,8.160785903802519e-06,Unknown
0.2868750000000002,2.8174733796363905e-06,2.480897348192997e-06,2.658348164221891e-06,2.736121406403185e-06,2.80977687469579e-06,8.159626958246966e-06,Unknown
0.2873942310000004,2.817695172114617e-06,2.497606413340764e-06,2.671131869797234e-06,2.736673102326701e-06,2.8096794410372494e-06,8.213327157738389e-06,Unknown
0.2879134619999997,2.815730252156016e-06,2.512314220767032e-06,2.67753451250174e-06,2.734872351412909e-06,2.813485301885584e-06,8.338291689377622e-06,Unknown
0.28843269199999977,2.8141456322159733e-06,2.516646465412834e-06,2.67928932741568e-06,2.7291058176509445e-06,2.81764199657193e-06,8.4450555909488e-06,Unknown
0.28895192299999994,2.81296153707622e-06,2.5158011455427723e-06,2.667859551663952e-06,2.72350892102358e-06,2.815413626099281e-06,8.485489286136918e-06,Unknown
0.2894711540000001,2.796215606897035e-06,2.5153910732088315e-06,2.650508609146917e-06,2.7208842947506737e-06,2.8119045327731844e-06,8.488471229561628e-06,Unknown
0.2899903850000003,2.7752303491719354e-06,2.5153827443009425e-06,2.6433996456546746e-06,2.72019434193873e-06,2.812418632825212e-06,8.482997390168422e-06,Unknown
0.2905096150000004,2.773348889412005e-06,2.5151606864566422e-06,2.6434075333341715e-06,2.7191279791035734e-06,2.8045975513688053e-06,8.477728354248735e-06,Unknown
0.2910288459999997,2.7784461206750827e-06,2.513970445342711e-06,2.641151603824944e-06,2.7176041825591728e-06,2.78409828512927e-06,8.47723147362941e-06,Unknown
0.29154807699999985,2.766987082940036e-06,2.513981817900946e-06,2.6390927754672496e-06,2.7147283490638767e-06,2.772321355909308e-06,8.481407138679479e-06,Unknown
0.292067308,2.7375941956829416e-06,2.5129887440016133e-06,2.6391889289297603e-06,2.7109687907790463e-06,2.7782235811962e-06,8.484732654984733e-06,Unknown
0.2925865380000001,2.709829933611252e-06,2.506934715514884e-06,2.638147073541785e-06,2.707191902386685e-06,2.7854358163450685e-06,8.48536520598573e-06,Unknown
0.2931057690000003,2.7040763781801043e-06,2.497950669000792e-06,2.6344252305299262e-06,2.7032959489574125e-06,2.7845562655542256e-06,8.488463846697508e-06,Unknown
0.29362500000000047,2.7100865133628983e-06,2.4871003293805915e-06,2.6286836185044e-06,2.700918266924469e-06,2.7766034329449004e-06,8.492167196056903e-06,Unknown
0.29414423099999976,2.7088917818732666e-06,2.4740137672258165e-06,2.6232668985566984e-06,2.699924134709679e-06,2.7607747009749968e-06,8.488185663778328e-06,Unknown
0.29466346199999993,2.7130795879603567e-06,2.4596496111864017e-06,2.6214093735491387e-06,2.700614922984128e-06,2.746405275471097e-06,8.48069696220836e-06,Unknown
0.295182692,2.720494216190196e-06,2.4455557832985987e-06,2.6260928448823365e-06,2.700847697924968e-06,2.743469470561305e-06,8.479438041719723e-06,Unknown
0.2957019230000002,2.7160630248452663e-06,2.434758062020653e-06,2.637000429415878e-06,2.6986134199235424e-06,2.7449291776471302e-06,8.4823837598621e-06,Unknown
0.2962211540000004,2.713105489047607e-06,2.429351540652197e-06,2.6501106546865864e-06,2.700237238345216e-06,2.7440228003166696e-06,8.48049978863302e-06,Unknown
0.29674038499999966,2.7129962193721342e-06,2.4279090407958216e-06,2.6619439592003074e-06,2.7028824912432167e-06,2.7438821727437125e-06,8.468146477694682e-06,Unknown
0.29725961499999976,2.7131876221036725e-06,2.4283319910548884e-06,2.67165354144059e-06,2.7005421361614853e-06,2.7480565772776548e-06,8.444391377619003e-06,Unknown
0.29777884599999993,2.72093758208869e-06,2.4291500504980798e-06,2.6797740180674125e-06,2.700090840632521e-06,2.7535558504803942e-06,8.408285128630233e-06,Unknown
0.2982980770000001,2.726756113282779e-06,2.4289447741352874e-06,2.686422591709964e-06,2.701293146984766e-06,2.755789422491177e-06,8.357937834459991e-06,Unknown
0.2988173080000003,2.7272387815922635e-06,2.428066525515044e-06,2.6902716267929847e-06,2.7002219025471986e-06,2.756292137418964e-06,8.301373303427735e-06,Unknown
0.2993365380000004,2.725388270242925e-06,2.427551842736621e-06,2.690399083598211e-06,2.6999621401997747e-06,2.757616084608572e-06,8.261416888890397e-06,Unknown
0.29985576899999966,2.7189574358947764e-06,2.427296023698363e-06,2.6894186436190354e-06,2.699433767750836e-06,2.7731660541757656e-06,8.25232923799929e-06,Unknown
0.30037499999999984,2.713352346130672e-06,2.4273238724415653e-06,2.6896528248727927e-06,2.699354681444247e-06,2.812778461718152e-06,8.257609892312818e-06,Unknown
0.300894231,2.71281244513023e-06,2.429130285639622e-06,2.688511450911735e-06,2.704258627305283e-06,2.847479563868913e-06,8.249499038411359e-06,Unknown
0.3014134620000002,2.713099367998917e-06,2.4334831364278934e-06,2.6850758701137737e-06,2.71081639126044e-06,2.8559583977673822e-06,8.217931853890337e-06,Unknown
0.3019326920000003,2.7073428583893863e-06,2.440787100628811e-06,2.681351551514829e-06,2.715381846970646e-06,2.855634049648769e-06,8.173320475788835e-06,Unknown
0.30245192300000046,2.6903039487014977e-06,2.450717551017474e-06,2.677068066495392e-06,2.718326871887759e-06,2.856338483337492e-06,8.134622403607061e-06,Unknown
0.30297115399999974,2.6702684800352303e-06,2.4622550044269486e-06,2.67543843863978e-06,2.718324421526583e-06,2.8526814224510298e-06,8.113466371643788e-06,Unknown
0.3034903849999999,2.6632487622168835e-06,2.477559740988179e-06,2.674261650968436e-06,2.7216088411054557e-06,2.8481684850205867e-06,8.108109890890723e-06,Unknown
0.304009615,2.6646710578494203e-06,2.492703407870432e-06,2.667282876327905e-06,2.7335824536600743e-06,2.8488949295674635e-06,8.112446957953585e-06,Unknown
0.3045288460000002,2.6637978655961024e-06,2.4973094056428408e-06,2.660664158997733e-06,2.7421943192113745e-06,2.849284498460943e-06,8.120423244533324e-06,Unknown
0.30504807700000036,2.665366543319332e-06,2.497828587470769e-06,2.6530472551250566e-06,2.7424069818736514e-06,2.846650856160327e-06,8.1261143178788e-06,Unknown
0.30556730799999965,2.667405025745523e-06,2.511315713122351e-06,2.6342570249767894e-06,2.746580599716043e-06,2.857490155319176e-06,8.127453222904053e-06,Unknown
0.30608653799999974,2.666750219630289e-06,2.534066765172581e-06,2.6123487579890203e-06,2.755284046564839e-06,2.8831345071714144e-06,8.12700956009639e-06,Unknown
0.3066057689999999,2.672968181581825e-06,2.5498970728173177e-06,2.6056552187320443e-06,2.758909065333493e-06,2.8931996902671885e-06,8.131225270007901e-06,Unknown
0.3071250000000001,2.681887288139129e-06,2.5537580608068246e-06,2.6121000654649e-06,2.7576863962243096e-06,2.8789960694143977e-06,8.145852334791685e-06,Unknown
0.30764423100000027,2.6838999304045063e-06,2.5540312236620684e-06,2.6161925964841944e-06,2.756792479519187e-06,2.863162664362088e-06,8.16196836066545e-06,Unknown
0.30816346200000044,2.6841061732615664e-06,2.5621849306583754e-06,2.615784407480643e-06,2.757001111514601e-06,2.853957042042724e-06,8.163054315285616e-06,Unknown
0.30868269199999965,2.6813832897528138e-06,2.577011556616675e-06,2.616088347107344e-06,2.755878634254884e-06,2.8430669864155703e-06,8.153023069995297e-06,Unknown
0.3092019229999998,2.675608953598336e-06,2.58698117443396e-06,2.6157833631626395e-06,2.7537450577846573e-06,2.820699355572895e-06,8.147770761785806e-06,Unknown
0.309721154,2.676868765036162e-06,2.588419524432421e-06,2.607083542114559e-06,2.7530592377459093e-06,2.787163380247461e-06,8.148457142308395e-06,Unknown
0.3102403850000002,2.6802129527417376e-06,2.5884238244305618e-06,2.5887117462716824e-06,2.75327256777427e-06,2.7629373587028807e-06,8.14907616405524e-06,Unknown
0.31075961500000027,2.677843406347163e-06,2.5911583847292607e-06,2.5707746393087003e-06,2.751421573400608e-06,2.7579254341528382e-06,8.149016288895023e-06,Unknown
0.31127884600000044,2.677341101932869e-06,2.593690587242436e-06,2.55778120570993e-06,2.7476769589278234e-06,2.758936113209493e-06,8.148613486327166e-06,Unknown
0.31179807699999973,2.680884513863144e-06,2.5926417294856565e-06,2.54794974066306e-06,2.746706851094694e-06,2.760939392687776e-06,8.146796219865513e-06,Unknown
0.3123173079999999,2.682071542452129e-06,2.590233027266356e-06,2.5397259871472096e-06,2.7470197001179803e-06,2.7576838081124225e-06,8.145051698188284e-06,Unknown
0.312836538,2.6813361221516744e-06,2.590992372526817e-06,2.5344674500901107e-06,2.746804770872024e-06,2.740763051230644e-06,8.145257449973985e-06,Unknown
0.3133557690000002,2.681869832957344e-06,2.590404163577644e-06,2.5351566168977635e-06,2.751844522064769e-06,2.7300110311119413e-06,8.140319558406156e-06,Unknown
0.31387500000000035,2.684332295495245e-06,2.586814742235029e-06,2.535615990965125e-06,2.7587364211331847e-06,2.7303273342545188e-06,8.126800139833615e-06,Unknown
0.31439423099999964,2.687813659370898e-06,2.5868528629329776e-06,2.5343497983589023e-06,2.7609829762668048e-06,2.727420895035768e-06,8.117771988409388e-06,Unknown
0.3149134619999998,2.6880514444227607e-06,2.587944934590716e-06,2.5342144026958665e-06,2.759298088766299e-06,2.727733353601505e-06,8.119569590812985e-06,Unknown
0.3154326919999999,2.693782347899593e-06,2.586470284302405e-06,2.534891229179961e-06,2.752629127226218e-06,2.721453850674148e-06,8.119049898481426e-06,Unknown
0.3159519230000001,2.724264492718783e-06,2.585762063592278e-06,2.5398597183626184e-06,2.745353795355817e-06,2.712813189064256e-06,8.099999247059308e-06,Unknown
0.31647115400000025,2.7650485792968545e-06,2.5858846742604937e-06,2.547594232999485e-06,2.7441139523038963e-06,2.7134676183132603e-06,8.056657487534523e-06,Unknown
0.31699038500000043,2.779965735432999e-06,2.585974420158524e-06,2.553324019836881e-06,2.743555527315877e-06,2.6997684366422117e-06,8.001143853556153e-06,Unknown
0.31750961499999963,2.768858250536879e-06,2.585394507884091e-06,2.5567630273353743e-06,2.740504930332184e-06,2.6899490213763157e-06,7.956790734040267e-06,Unknown
0.3180288459999998,2.7532565355630016e-06,2.5819743821301475e-06,2.5595169379769006e-06,2.7398720240678422e-06,2.7082008907613384e-06,7.93435761407613e-06,Unknown
0.318548077,2.74378064642118e-06,2.576868341600188e-06,2.560065586589065e-06,2.7396455886643485e-06,2.726730777725603e-06,7.926273450112693e-06,Unknown
0.31906730800000016,2.744123614504244e-06,2.563532704666238e-06,2.5560201476672075e-06,2.733806639677036e-06,2.7330187061899702e-06,7.921371713957079e-06,Unknown
0.31958653800000025,2.7458702193394674e-06,2.5281847601875733e-06,2.5510895717390112e-06,2.72517862073053e-06,2.7378915625799204e-06,7.914467522347485e-06,Unknown
0.32010576900000043,2.745956570975042e-06,2.4724532070416213e-06,2.5494199343327952e-06,2.723107810485248e-06,2.74475756818003e-06,7.90828867928427e-06,Unknown
0.3206249999999997,2.748291323982972e-06,2.4124270854100096e-06,2.549403183695577e-06,2.7267017206751585e-06,2.749972124392158e-06,7.908286604085272e-06,Unknown
0.3211442309999999,2.750933711401902e-06,2.366187679426166e-06,2.549185119041553e-06,2.726009480147733e-06,2.746329383494507e-06,7.91032098396949e-06,Unknown
0.32166346200000007,2.7535512742570638e-06,2.3393936090097997e-06,2.546918431429344e-06,2.720220645243064e-06,2.7308542136251038e-06,7.905832373658623e-06,Unknown
0.32218269200000016,2.7547604993271616e-06,2.323026323013245e-06,2.539009476678045e-06,2.71307035207706e-06,2.715428397548025e-06,7.898097278943513e-06,Unknown
0.32270192300000033,2.7576717224058923e-06,2.313625126874375e-06,2.5333047748411703e-06,2.703572646680454e-06,2.710029748613083e-06,7.88973628036949e-06,Unknown
0.3232211539999996,2.7685496076985213e-06,2.312307777755546e-06,2.539064020586524e-06,2.693314773027724e-06,2.710578153646384e-06,7.863624889681255e-06,Unknown
0.3237403849999998,2.785337130135129e-06,2.3132375163940133e-06,2.5477280051496123e-06,2.6847016105413087e-06,2.711954834271468e-06,7.774430496782494e-06,Unknown
0.3242596149999999,2.799983698291449e-06,2.310241780581159e-06,2.55529715660604e-06,2.676423807038344e-06,2.708001421681289e-06,7.632951960399382e-06,Unknown
0.32477884600000007,2.8045518596676667e-06,2.3051499559498736e-06,2.564103530544476e-06,2.669926173043999e-06,2.7020019779553587e-06,7.569915727463225e-06,Unknown
0.32529807700000024,2.792385784217062e-06,2.303433211142861e-06,2.5597609445334857e-06,2.6670357309344576e-06,2.702050357188364e-06,7.568157249407169e-06,Unknown
0.3258173080000004,2.770793010074159e-06,2.303881639062391e-06,2.530361656896173e-06,2.6656599679913838e-06,2.70627923697395e-06,7.465031519849501e-06,Unknown
0.3263365379999996,2.7575242523795743e-06,2.3017246585912944e-06,2.4900689627534607e-06,2.662637016408597e-06,2.7114294987773146e-06,7.332699913317847e-06,Unknown
0.3268557689999998,2.754644451934578e-06,2.2965737249509306e-06,2.4619594340974625e-06,2.654359696424273e-06,2.712889721860383e-06,7.299476154681034e-06,Unknown
0.32737499999999997,2.758050041211496e-06,2.2909301545065133e-06,2.451286581812228e-06,2.644550553557315e-06,2.7141082261722945e-06,7.305600137671987e-06,Unknown
0.32789423100000015,2.7677656314331883e-06,2.287114574604581e-06,2.452110271273093e-06,2.6406137980406127e-06,2.719048098845769e-06,7.313066296248388e-06,Unknown
0.3284134620000003,2.782815864789372e-06,2.2775221372880013e-06,2.467403920159962e-06,2.6401758401034627e-06,2.720116524516308e-06,7.31896293539118e-06,Unknown
0.3289326920000004,2.807035803601732e-06,2.2503918076267634e-06,2.492128203392408e-06,2.640333052871956e-06,2.719573968250388e-06,7.294627695828485e-06,Unknown
0.3294519229999997,2.839797810621625e-06,2.214096447781451e-06,2.5093093436192077e-06,2.640910532383557e-06,2.721531964600645e-06,7.265435311752053e-06,Unknown
0.3299711539999999,2.8627089828756355e-06,2.187418651251317e-06,2.513300438127307e-06,2.640083043843481e-06,2.720918580562261e-06,7.259928515946505e-06,Unknown
0.33049038500000005,2.866606926746589e-06,2.173609260848683e-06,2.5116697080764738e-06,2.6384134138660343e-06,2.7147652885244533e-06,7.2616656081665e-06,Unknown
0.33100961500000015,2.86698453461932e-06,2.1659695505795988e-06,2.5114975472586188e-06,2.6376303773880206e-06,2.694947951771532e-06,7.261367100223231e-06,Unknown
0.3315288460000003,2.867267317292254e-06,2.161520918063003e-06,2.5101797170749253e-06,2.6372834933690263e-06,2.6791374592536728e-06,7.259532542645897e-06,Unknown
0.3320480770000005,2.8703488694949523e-06,2.1605465319192576e-06,2.5087271036636977e-06,2.6366958323364942e-06,2.688282810460992e-06,7.259788263488607e-06,Unknown
0.3325673079999998,2.8848128429469084e-06,2.160590459415077e-06,2.5003010709410344e-06,2.6397537643457484e-06,2.6954514516324097e-06,7.267897645304192e-06,Unknown
0.3330865379999999,2.8941382549783582e-06,2.160186336977387e-06,2.472775561836909e-06,2.6362142837285924e-06,2.691926116562281e-06,7.272734595600938e-06,Unknown
0.33360576900000005,2.8924768095917176e-06,2.160255459501201e-06,2.4479086656795465e-06,2.606412989482339e-06,2.691723103457521e-06,7.265411042806572e-06,Unknown
0.3341250000000002,2.8911523200521368e-06,2.1608969095034125e-06,2.4408725971671757e-06,2.562210752503044e-06,2.689696702091077e-06,7.256579489108443e-06,Unknown
0.3346442310000004,2.8908025600513987e-06,2.165631166746804e-06,2.439393788000929e-06,2.52729207998112e-06,2.683508117569749e-06,7.254155920509348e-06,Unknown
0.3351634619999997,2.8969149866050946e-06,2.169600196054156e-06,2.448704196833648e-06,2.503472597611397e-06,2.679189324226734e-06,7.254336084749638e-06,Unknown
0.3356826919999998,2.90381851622573e-06,2.169492411535012e-06,2.470050346566397e-06,2.4847667850617707e-06,2.684487277110551e-06,7.254692789927703e-06,Unknown
0.33620192299999996,2.900003834541641e-06,2.1749526023935727e-06,2.4880489903240983e-06,2.464835119908472e-06,2.6984904878927308e-06,7.2588064873820705e-06,Unknown
0.33672115400000013,2.906476447417053e-06,2.184407521935873e-06,2.5005061020834373e-06,2.4435485319741658e-06,2.7115016942446085e-06,7.26174915009476e-06,Unknown
0.3372403850000003,2.924576011144651e-06,2.191108423940216e-06,2.5150454577724776e-06,2.4251059308940077e-06,2.7219244449255778e-06,7.232374684669796e-06,Unknown
0.3377596150000004,2.929123785184032e-06,2.196431260148716e-06,2.539456253473182e-06,2.406137292088712e-06,2.7314409025011243e-06,7.138927014291157e-06,Unknown
0.3382788459999997,2.9285452659443843e-06,2.2006217368567224e-06,2.5777540522181058e-06,2.3828297692138125e-06,2.738088421423952e-06,7.007319614782486e-06,Unknown
0.33879807699999986,2.9261786093896477e-06,2.200853992149128e-06,2.618348629948249e-06,2.3551484189480863e-06,2.74430912132262e-06,6.897676122962085e-06,Unknown
0.33931730800000004,2.918693293968998e-06,2.197999507228846e-06,2.644286112331188e-06,2.3332696848833163e-06,2.750912612551141e-06,6.817297602353196e-06,Unknown
0.33983653800000013,2.92392969123212e-06,2.20176046696866e-06,2.652441652163877e-06,2.3280382236880587e-06,2.7535183934808963e-06,6.727562882603686e-06,Unknown
0.3403557690000003,2.931046564839825e-06,2.216514990995273e-06,2.644672001793648e-06,2.328137416610971e-06,2.759569177781357e-06,6.641732413251653e-06,Unknown
0.3408750000000005,2.92674585277521e-06,2.2317785806944664e-06,2.6298312162575158e-06,2.320764887919016e-06,2.7789775555290275e-06,6.650760305311045e-06,Unknown
0.34139423099999977,2.9230084110051545e-06,2.239511017060543e-06,2.623471168780579e-06,2.3106150888547685e-06,2.8046453756480706e-06,6.601967264788243e-06,Unknown
0.34191346199999995,2.9235007913482843e-06,2.241863014610188e-06,2.624490959687093e-06,2.3038938994027943e-06,2.830223727106933e-06,6.180832019724326e-06,Unknown
0.34243269200000004,2.931307962087125e-06,2.242316345768812e-06,2.620930541105531e-06,2.2996269514629747e-06,2.85302363805144e-06,5.61633899387301e-06,Unknown
0.3429519230000002,2.940260749785109e-06,2.241160735842174e-06,2.6064341652133404e-06,2.292380825241552e-06,2.856778046967001e-06,5.374220891230931e-06,Unknown
0.3434711540000004,2.9378873452046813e-06,2.2380427073106904e-06,2.579883403381674e-06,2.2738363617133447e-06,2.836892653690712e-06,5.36095135822988e-06,Unknown
0.3439903849999997,2.9292626087299653e-06,2.235317500973053e-06,2.54558508477876e-06,2.241830773856459e-06,2.817053023335589e-06,5.369190696502792e-06,Unknown
0.34450961499999977,2.923719420174211e-06,2.2351827078849862e-06,2.517874741374905e-06,2.2048297301025534e-06,2.812621301295538e-06,5.3710704120588255e-06,Unknown
0.34502884599999994,2.922750666016732e-06,2.234027070819868e-06,2.5090356559998905e-06,2.171158872348717e-06,2.8167604358903257e-06,5.35676795389379e-06,Unknown
0.3455480770000001,2.922379747670747e-06,2.2309783336528324e-06,2.513405858209245e-06,2.149907361347614e-06,2.8222319924156847e-06,5.337517782266829e-06,Unknown
0.3460673080000003,2.916492100733768e-06,2.2333042520395425e-06,2.5191133054758945e-06,2.144775042052651e-06,2.825249969628455e-06,5.321924749034799e-06,Unknown
0.3465865380000004,2.909560417941044e-06,2.237632240926793e-06,2.520211454464316e-06,2.1443313320673413e-06,2.8233740153821523e-06,5.308283485744689e-06,Unknown
0.3471057689999997,2.909705093428677e-06,2.2376480856636925e-06,2.5171586262409714e-06,2.150063203103594e-06,2.8203364243863604e-06,5.302223151615549e-06,Unknown
0.34762499999999985,2.9039466720952507e-06,2.2431300061644514e-06,2.5151170545795443e-06,2.1653930439928843e-06,2.8228095666247123e-06,5.302971979587186e-06,Unknown
0.348144231,2.891952761636386e-06,2.2560354999289e-06,2.5160021900764462e-06,2.1714435427153306e-06,2.8263758994209776e-06,5.289503647866445e-06,Unknown
0.3486634620000002,2.8909320189289538e-06,2.266082956697021e-06,2.5150400532641968e-06,2.168538295787951e-06,2.823350222679529e-06,5.266323061452852e-06,Unknown
0.3491826920000003,2.888557077617766e-06,2.270470575601181e-06,2.511996126465136e-06,2.1687778438648046e-06,2.816500133823265e-06,5.258364220276774e-06,Unknown
0.34970192300000047,2.878055717305e-06,2.268882651037818e-06,2.511212030270297e-06,2.159850671505655e-06,2.812965424028949e-06,5.260151182664507e-06,Unknown
0.35022115399999976,2.8764436353833727e-06,2.2654015843751286e-06,2.5127053628769987e-06,2.142552663882769e-06,2.841193873135145e-06,5.260487056072296e-06,Unknown
0.35074038499999993,2.879354937428167e-06,2.2663807015157768e-06,2.5231619879471435e-06,2.1328547864184466e-06,2.917073991401005e-06,5.261403942806931e-06,Unknown
0.351259615,2.875605921970135e-06,2.2674176105099886e-06,2.5448284477030858e-06,2.124396001476485e-06,3.003613378597546e-06,5.262107206139774e-06,Unknown
0.3517788460000002,2.872555179013212e-06,2.262377009293968e-06,2.5628407375104683e-06,2.105534190828692e-06,3.0681805573526704e-06,5.261475323425652e-06,Unknown
0.3522980770000004,2.874239303556833e-06,2.2475741661211308e-06,2.5708686883206106e-06,2.0792950576630963e-06,3.110808398878541e-06,5.26066687235243e-06,Unknown
0.35281730799999966,2.87645870319772e-06,2.22639508037974e-06,2.5729132177999595e-06,2.057649643353658e-06,3.1365995080372424e-06,5.259990559137564e-06,Unknown
0.35333653799999976,2.882017645457228e-06,2.211178350860168e-06,2.5727699121962765e-06,2.0471861628703247e-06,3.147777152581499e-06,5.259451276515126e-06,Unknown
0.35385576899999993,2.8895427983168565e-06,2.2032549492663903e-06,2.575179549163787e-06,2.041989517880368e-06,3.1514785164141502e-06,5.259305512545835e-06,Unknown
0.3543750000000001,2.8916157604787887e-06,2.199311773646483e-06,2.579277073596207e-06,2.0354857730109456e-06,3.1503823641603043e-06,5.2578729724695534e-06,Unknown
0.3548942310000003,2.8910218268834724e-06,2.19946774578413e-06,2.583969725433136e-06,2.0244289988245324e-06,3.1483748378573632e-06,5.254004630578496e-06,Unknown
0.35541346200000046,2.890990050021007e-06,2.199352435484817e-06,2.59027421133992e-06,2.008440869492229e-06,3.154901762515614e-06,5.2507977834329455e-06,Unknown
0.35593269199999966,2.8880665360204784e-06,2.19871423372845e-06,2.5965467716629684e-06,1.995862072518286e-06,3.164605297989283e-06,5.250334236088719e-06,Unknown
0.35645192299999984,2.876559437770247e-06,2.203600234999382e-06,2.602922758723761e-06,1.9938045786770213e-06,3.170861248913572e-06,5.250823479130269e-06,Unknown
0.356971154,2.859740780137987e-06,2.2117515330896093e-06,2.605566982892459e-06,1.9908175624981443e-06,3.176610269342149e-06,5.251836137350409e-06,Unknown
0.3574903850000002,2.8530393398374997e-06,2.2155739296875834e-06,2.6026531713930734e-06,1.9693866633201384e-06,3.1812779359517275e-06,5.253162113766645e-06,Unknown
0.3580096150000003,2.853874743986566e-06,2.21545765738472e-06,2.602086415457441e-06,1.929212842892172e-06,3.181456033760635e-06,5.25193328919308e-06,Unknown
0.35852884600000046,2.8495058304769937e-06,2.2158023359278663e-06,2.607240324644621e-06,1.8858457702758367e-06,3.177816981687341e-06,5.248042465837961e-06,Unknown
0.35904807699999974,2.841377308270886e-06,2.2209684925211968e-06,2.613586720160885e-06,1.86546100458267e-06,3.176301148575601e-06,5.244167052622375e-06,Unknown
0.3595673079999999,2.8221778716778302e-06,2.2298971978095373e-06,2.6190745521437792e-06,1.8822689414969289e-06,3.1810986717296103e-06,5.240551645462859e-06,Unknown
0.360086538,2.793519739721768e-06,2.2351843162914654e-06,2.62374519930016e-06,1.9083228119588814e-06,3.18902814467228e-06,5.2358590104869485e-06,Unknown
0.3606057690000002,2.7858222977568256e-06,2.2349166099453565e-06,2.622736121320961e-06,1.914966713494454e-06,3.193543032675518e-06,5.232564357282351e-06,Unknown
0.36112500000000036,2.7932424808304384e-06,2.2313482511050456e-06,2.619770102556348e-06,1.90134345616951e-06,3.193473441754833e-06,5.2387102010648255e-06,Unknown
0.36164423099999965,2.7895229646462404e-06,2.228511179273212e-06,2.623623680842571e-06,1.8797358146844997e-06,3.194674058461231e-06,5.252108461614403e-06,Unknown
0.3621634619999998,2.7895635831951505e-06,2.230018816425158e-06,2.620507126059448e-06,1.8817907399750068e-06,3.1979043280839862e-06,5.257111555908935e-06,Unknown
0.3626826919999999,2.797042652949332e-06,2.230093788285748e-06,2.608057603521276e-06,1.9079413738076426e-06,3.19671793106732e-06,5.252527966692039e-06,Unknown
0.3632019230000001,2.7977279184729486e-06,2.236377316556436e-06,2.605925694061469e-06,1.9177132713369e-06,3.193967049370144e-06,5.247661130454529e-06,Unknown
0.36372115400000027,2.798658182092996e-06,2.2571899960499545e-06,2.6081028451679524e-06,1.9114720119217337e-06,3.1969408320639973e-06,5.241860513584346e-06,Unknown
0.36424038500000044,2.799178408501986e-06,2.271053680799284e-06,2.609035823898341e-06,1.910196749410676e-06,3.205857574687263e-06,5.226147362649123e-06,Unknown
0.36475961499999965,2.7927360820957247e-06,2.271826108846612e-06,2.615884906980706e-06,1.909279949933734e-06,3.2208447619098174e-06,5.200298294217968e-06,Unknown
0.3652788459999998,2.787185042708673e-06,2.271782322710005e-06,2.615520472756359e-06,1.907238169098722e-06,3.2438995261471764e-06,5.188854579986805e-06,Unknown
0.365798077,2.786703926826973e-06,2.2624514291840194e-06,2.6019470321980773e-06,1.9072401929567608e-06,3.2735731439306507e-06,5.1881452414749005e-06,Unknown
0.3663173080000002,2.791292870074691e-06,2.240408387805836e-06,2.589854479571672e-06,1.907817975857301e-06,3.2981778999515056e-06,5.167027727308607e-06,Unknown
0.36683653800000027,2.7943712130331503e-06,2.229330074011593e-06,2.5894331935664407e-06,1.9089745895663287e-06,3.3088565793848917e-06,5.141576815016983e-06,Unknown
0.36735576900000044,2.781648715052527e-06,2.230314335904587e-06,2.598088957320731e-06,1.909993141236589e-06,3.3114737867764374e-06,5.138107430743748e-06,Unknown
0.36787499999999973,2.768315656876969e-06,2.227150295248877e-06,2.6039603623052914e-06,1.911304242135828e-06,3.313717425397858e-06,5.145038013242576e-06,Unknown
0.3683942309999999,2.768723026354681e-06,2.22601422294847e-06,2.604619283798447e-06,1.9118856424511887e-06,3.317804880516876e-06,5.147967800492736e-06,Unknown
0.3689134620000001,2.7589052699661096e-06,2.224940754108357e-06,2.603863568800697e-06,1.911777887189441e-06,3.3263535937913496e-06,5.147663752498475e-06,Unknown
0.3694326920000002,2.751066396531965e-06,2.2236652827513005e-06,2.600142558600543e-06,1.912421847496733e-06,3.3412969006076486e-06,5.146191751949722e-06,Unknown
0.36995192300000035,2.773717801373519e-06,2.2268045424861022e-06,2.597915213085586e-06,1.912445593384469e-06,3.358298934047045e-06,5.143085791793848e-06,Unknown
0.37047115399999964,2.800636994265997e-06,2.2237561440346813e-06,2.599336381446084e-06,1.911963181647231e-06,3.3693134594429668e-06,5.141983035877851e-06,Unknown
0.3709903849999998,2.811584158711971e-06,2.2183438306946403e-06,2.6001334990866536e-06,1.91126063869222e-06,3.3708986134077737e-06,5.147877596853354e-06,Unknown
0.3715096149999999,2.816093107233882e-06,2.218075147262009e-06,2.5995358000658857e-06,1.909349773435583e-06,3.365613224909233e-06,5.158334993472732e-06,Unknown
0.3720288460000001,2.8215534084651293e-06,2.2172130314876035e-06,2.60037634981833e-06,1.905535433658174e-06,3.3631250847298578e-06,5.162960225559934e-06,Unknown
0.37254807700000026,2.8311160609846878e-06,2.2145546587597182e-06,2.602541171642064e-06,1.9030256412817244e-06,3.373587410829022e-06,5.154336998722571e-06,Unknown
0.37306730800000043,2.835568991520928e-06,2.213604081572526e-06,2.6025105635166405e-06,1.9043516012390403e-06,3.379216662858271e-06,5.1420425602947135e-06,Unknown
0.37358653799999963,2.827953663485605e-06,2.2133681908358964e-06,2.600096074991737e-06,1.9047105285560556e-06,3.361974107142638e-06,5.1385332333112674e-06,Unknown
0.3741057689999998,2.8198159793247708e-06,2.2095382091714854e-06,2.5991854486567103e-06,1.90546958001726e-06,3.342438518312896e-06,5.138566856349456e-06,Unknown
0.374625,2.821007969031165e-06,2.203557256454312e-06,2.6027978000688726e-06,1.9080187293871977e-06,3.334409503234063e-06,5.135436119241933e-06,Unknown
0.37514423100000016,2.827032232938561e-06,2.2030140306889603e-06,2.605797700275074e-06,1.9078593599920683e-06,3.330963915614689e-06,5.132653791033641e-06,Unknown
0.37566346200000034,2.8279871152394408e-06,2.206989185024308e-06,2.6048100478167377e-06,1.9088727364510635e-06,3.331765662822923e-06,5.134458215790191e-06,Unknown
0.37618269200000043,2.8263167254453093e-06,2.2081581499700666e-06,2.6017952006659536e-06,1.909574747264284e-06,3.3320684850754246e-06,5.142659409305568e-06,Unknown
0.3767019229999997,2.8302871003257698e-06,2.2075961957904136e-06,2.5964514951615736e-06,1.908331185332825e-06,3.3304252968356312e-06,5.153083251877054e-06,Unknown
0.3772211539999999,2.839368111914246e-06,2.2073504561638654e-06,2.592600782657764e-06,1.9104395753919912e-06,3.3356949532902853e-06,5.157366293682887e-06,Unknown
0.37774038500000007,2.844737564594944e-06,2.2133627137249243e-06,2.593563004427666e-06,1.9110602172254702e-06,3.3440472746158305e-06,5.157049750996692e-06,Unknown
0.37825961500000016,2.8438750283821305e-06,2.234575004635305e-06,2.5949124004774488e-06,1.9058123878939272e-06,3.3450613447504487e-06,5.16007796757973e-06,Unknown
0.37877884600000034,2.8446609694072672e-06,2.261453030426058e-06,2.594919226807587e-06,1.8971735645941272e-06,3.3397882754331804e-06,5.165939833864249e-06,Unknown
0.3792980769999996,2.8427545738523718e-06,2.2782196861733268e-06,2.5953735361538685e-06,1.8868049953235737e-06,3.332673517418689e-06,5.169111113267137e-06,Unknown
0.3798173079999998,2.8413383723030287e-06,2.282062800471541e-06,2.595468418140951e-06,1.8774813997022272e-06,3.326058996407524e-06,5.16902442098496e-06,Unknown
0.3803365379999999,2.841094107904489e-06,2.280223145597336e-06,2.5977340536391845e-06,1.8718142790729785e-06,3.3221911578709813e-06,5.167641526351654e-06,Unknown
0.38085576900000007,2.825712479577634e-06,2.2800353044088547e-06,2.602204910635345e-06,1.8697974918643844e-06,3.321150790235487e-06,5.162520038709077e-06,Unknown
0.38137500000000024,2.80958242922912e-06,2.280638999686349e-06,2.594857577866154e-06,1.8697838184862128e-06,3.321888022258621e-06,5.152139033952748e-06,Unknown
0.3818942310000004,2.8087155665232104e-06,2.2804238790536105e-06,2.57417231186551e-06,1.8686600468262528e-06,3.324125279541898e-06,5.144784515870321e-06,Unknown
0.3824134619999997,2.8122600749479742e-06,2.281535674182581e-06,2.5576725588392634e-06,1.8662745612588145e-06,3.327602632861412e-06,5.144717298379316e-06,Unknown
0.3829326919999998,2.8189306452056087e-06,2.2850305532728017e-06,2.550081736294684e-06,1.8655632956195395e-06,3.3293344986143983e-06,5.138603542797125e-06,Unknown
0.383451923,2.832080790563325e-06,2.2906021657929925e-06,2.5462506086455044e-06,1.867199250299907e-06,3.3292658246192587e-06,5.126557763151557e-06,Unknown
0.38397115400000015,2.8378059639895245e-06,2.295945946880704e-06,2.548232224835101e-06,1.871346262901428e-06,3.332832906816688e-06,5.1243451587361884e-06,Unknown
0.3844903850000003,2.8348587212558262e-06,2.2975421736274104e-06,2.557237822248655e-06,1.8809593340283823e-06,3.3359392350871968e-06,5.124048708503765e-06,Unknown
