Time,Rectus Femoris,Vastus Medialis,Vastus Lateralis,Bicep Femoris,Tibialis,Gastrocnemius Medialis,Trimmed Time
6.281134615,7.296220186828521e-06,1.0090758296571207e-05,6.701565135916767e-06,1.8817830114551568e-06,1.6154193980800052e-05,3.392396974999944e-06,0.00025961500000004634
6.281653846,7.2974808374520385e-06,1.0112068029836316e-05,6.718779400622141e-06,1.8961337491639105e-06,1.6197112793771404e-05,3.400002740742784e-06,0.0007788460000002217
6.282173077,7.28713048458068e-06,1.0134902637081715e-05,6.74160135295947e-06,1.9055395227555532e-06,1.6279901406018293e-05,3.410901444670956e-06,0.0012980770000003972
6.282692308,7.252615965348105e-06,1.0156777256152e-05,6.769603948910114e-06,1.911391942504592e-06,1.6382377132180594e-05,3.4250979214671632e-06,0.0018173079999996844
6.283211538,7.2042007451259005e-06,1.0171611061340945e-05,6.808853318165089e-06,1.9118468701621048e-06,1.6476184743703835e-05,3.4380542266582877e-06,0.002336537999999777
6.283730769,7.158641618923004e-06,1.0176013586074205e-05,6.859520285843062e-06,1.9066520934842744e-06,1.654360176551776e-05,3.4482116740167823e-06,0.0028557689999999525
6.28425,7.115082967414822e-06,1.0171902647747285e-05,6.904985404622597e-06,1.9001451700466344e-06,1.6586528350197425e-05,3.458238833693833e-06,0.003375000000000128
6.284769231,7.057791566027879e-06,1.0165230001369845e-05,6.930302237449464e-06,1.8963294402987185e-06,1.6615251579788102e-05,3.469631845091053e-06,0.0038942310000003033
6.285288462,6.972970038217469e-06,1.0160867384784187e-05,6.94078025137763e-06,1.8958517761840235e-06,1.663602330476629e-05,3.482916379323941e-06,0.0044134619999995905
6.285807692,6.869977960131072e-06,1.0159069587449696e-05,6.950013112493976e-06,1.8972736639729936e-06,1.665046813718833e-05,3.4964914108866875e-06,0.004932691999999683
6.286326923,6.778629930143044e-06,1.0157805899453844e-05,6.96442089217687e-06,1.896842049443508e-06,1.666361683276571e-05,3.5090421186481736e-06,0.005451922999999859
6.286846154,6.709935484195984e-06,1.0156009794730262e-05,6.977177518048623e-06,1.8909555799928748e-06,1.668448819740044e-05,3.5222703225219543e-06,0.005971154000000034
6.287365385,6.645525726093602e-06,1.0152723854675715e-05,6.978422091229085e-06,1.8841489194302696e-06,1.669977406014717e-05,3.537601223614376e-06,0.0064903850000002095
6.287884615,6.557573853882356e-06,1.0143897360679046e-05,6.967721291992796e-06,1.8837963770382884e-06,1.668078582997038e-05,3.5523994422632065e-06,0.007009615000000302
6.288403846,6.428467194418504e-06,1.0120491842005342e-05,6.94981052967957e-06,1.8866218382107525e-06,1.67068309510341e-05,3.559710045949545e-06,0.007528845999999589
6.288923077,6.272207600638849e-06,1.0076242746073806e-05,6.928089920666411e-06,1.8875712574322432e-06,1.6962913326831056e-05,3.5536131638287838e-06,0.008048076999999765
6.289442308,6.128261318440529e-06,1.002011783746983e-05,6.904352626839563e-06,1.8877716152467807e-06,1.7447328488674932e-05,3.5313064380297218e-06,0.00856730799999994
6.289961538,6.025134472452048e-06,9.970000010284677e-06,6.8807155363786285e-06,1.8860568089083823e-06,1.7934108735019515e-05,3.495999605729071e-06,0.009086538000000033
6.290480769,5.960393363201023e-06,9.935832226381524e-06,6.861610624028884e-06,1.88285467551051e-06,1.8306913986192984e-05,3.458696304985156e-06,0.009605769000000208
6.291,5.914971312118949e-06,9.917396126113489e-06,6.851290064131953e-06,1.8829520573954795e-06,1.864712939136966e-05,3.428558919707166e-06,0.010125000000000384
6.291519231,5.872606773057413e-06,9.912073094581722e-06,6.848391692595911e-06,1.8879051201962672e-06,1.907332359187368e-05,3.4061653117751403e-06,0.010644230999999671
6.292038462,5.8276233173362624e-06,9.919452004515217e-06,6.847724070797552e-06,1.8946654668366413e-06,1.956301978746381e-05,3.3882198852349395e-06,0.011163461999999846
6.292557692,5.788708949365726e-06,9.938527436179032e-06,6.8464382334399695e-06,1.8970363659677128e-06,1.990636006259132e-05,3.375997948491037e-06,0.011682691999999939
6.293076923,5.7775502315329285e-06,9.964657124100136e-06,6.844824637026834e-06,1.894484098180503e-06,2.000302177701442e-05,3.377848191862958e-06,0.012201923000000114
6.293596154,5.813605714219081e-06,9.993481117366338e-06,6.844240074504307e-06,1.892593935508116e-06,1.999645417274205e-05,3.398547723903619e-06,0.01272115400000029
6.294115385,5.887153058157074e-06,1.0023066726792744e-05,6.846562148544675e-06,1.8903925593670555e-06,2.000938582099996e-05,3.429868256556825e-06,0.013240384999999577
6.294634615,5.958489118637702e-06,1.005244914767237e-05,6.854735237371834e-06,1.887308979511464e-06,2.003678353148199e-05,3.46016872961069e-06,0.01375961499999967
6.295153846,5.999141296802234e-06,1.0079326991115969e-05,6.872163129513145e-06,1.8866012467292949e-06,2.0056199513130195e-05,3.4857912389861644e-06,0.014278845999999845
6.295673077,6.01393931290791e-06,1.0097585643316804e-05,6.899385578047458e-06,1.8865630500158883e-06,2.0070201605734964e-05,3.5118660066078524e-06,0.01479807700000002
6.296192308,6.013973509301784e-06,1.0104050808013824e-05,6.931819164357326e-06,1.8858628502395995e-06,2.0085592202821878e-05,3.546630016776913e-06,0.015317308000000196
6.296711538,5.992213748022413e-06,1.0104318743838146e-05,6.96411249529384e-06,1.8858839804274852e-06,2.0100435508493716e-05,3.591008919321857e-06,0.01583653800000029
6.297230769,5.93195764610002e-06,1.0103947791369188e-05,6.994823592043186e-06,1.8856519946489703e-06,2.0110665363089168e-05,3.638190474184992e-06,0.016355768999999576
6.29775,5.831684041513201e-06,1.0103398861031202e-05,7.023208134127039e-06,1.882489740304291e-06,2.011776644684656e-05,3.6839628389926814e-06,0.01687499999999975
6.298269231,5.727844603685468e-06,1.0102107350856653e-05,7.045408575659133e-06,1.8760732489085937e-06,2.0127820743197843e-05,3.729562112629549e-06,0.017394230999999927
6.298788462,5.6652317216048965e-06,1.0100497167773852e-05,7.059534834236654e-06,1.8706741082116543e-06,2.0148891577228923e-05,3.774814171011072e-06,0.017913462000000102
6.299307692,5.642977708079977e-06,1.010031154098666e-05,7.072090713839506e-06,1.870511146265068e-06,2.018731640304069e-05,3.8118508221776406e-06,0.018432692000000195
6.299826923,5.636677467386776e-06,1.0100516511013466e-05,7.095047795759942e-06,1.8732263131879928e-06,2.0244644772083145e-05,3.83056480418072e-06,0.01895192300000037
6.300346154,5.633074429281895e-06,1.0097337635929916e-05,7.1333216048351855e-06,1.8752368279753272e-06,2.0319433919469275e-05,3.831117944608688e-06,0.019471153999999657
6.300865385,5.625018740283057e-06,1.0091168298512808e-05,7.174516712956047e-06,1.8771973504704132e-06,2.041081253180587e-05,3.822944597238127e-06,0.019990384999999833
6.301384615,5.618387323551218e-06,1.0084243495962382e-05,7.202020484188983e-06,1.8781967361499025e-06,2.0521399154286215e-05,3.813496105555813e-06,0.020509614999999926
6.301903846,5.6237019384942e-06,1.0075496029048154e-05,7.213718628258726e-06,1.877636656685604e-06,2.065991041039036e-05,3.805416319485645e-06,0.0210288460000001
6.302423077,5.63688426640533e-06,1.0061008898060934e-05,7.214142662875609e-06,1.878779291943011e-06,2.0834249602213448e-05,3.799075290207876e-06,0.021548077000000276
6.302942308,5.6519118145344735e-06,1.0037649351615776e-05,7.202359383276612e-06,1.8813582302005213e-06,2.103507297273992e-05,3.793936301721714e-06,0.022067308000000452
6.303461538,5.6708735230139565e-06,1.0008374933485529e-05,7.177189209454549e-06,1.8803489120798504e-06,2.12305303178606e-05,3.790319830620168e-06,0.022586537999999656
6.303980769,5.69956570209555e-06,9.97548776145136e-06,7.142472518726557e-06,1.8735515395563133e-06,2.1385872284174524e-05,3.788331698223385e-06,0.02310576899999983
6.3045,5.7390591534717535e-06,9.932268086511656e-06,7.10257802251836e-06,1.8663255074025657e-06,2.1489342219747712e-05,3.786297095172112e-06,0.023625000000000007
6.305019231,5.778651707112692e-06,9.870897290783166e-06,7.057472349101293e-06,1.8644270237174257e-06,2.1555569024628343e-05,3.783019279018632e-06,0.024144231000000183
6.305538462,5.810110893766015e-06,9.7904724989747e-06,7.002914834729444e-06,1.866063261025466e-06,2.1606331997542535e-05,3.779489864490341e-06,0.024663462000000358
6.306057692,5.836604731770457e-06,9.699082420632764e-06,6.936667889885834e-06,1.8674145457539985e-06,2.1652636713598297e-05,3.7765236760722e-06,0.02518269200000045
6.306576923,5.862134585019937e-06,9.607598600593248e-06,6.864223127459084e-06,1.8676340316924323e-06,2.169196690389541e-05,3.773444020270703e-06,0.025701922999999738
6.307096154,5.882800357006372e-06,9.516719003609475e-06,6.79233903167824e-06,1.8675388867138452e-06,2.171706625729788e-05,3.7701415187073794e-06,0.026221153999999913
6.307615385,5.893902041787938e-06,9.418549328478452e-06,6.719941728354913e-06,1.868577463359862e-06,2.1727188455574287e-05,3.767598412111289e-06,0.02674038500000009
6.308134615,5.899252873556412e-06,9.309471872183404e-06,6.639669625083598e-06,1.8714465385346568e-06,2.172835066949998e-05,3.765932106658713e-06,0.02725961500000018
6.308653846,5.9061663202391954e-06,9.20119166785311e-06,6.551572085186012e-06,1.8745197684554485e-06,2.1726704162035225e-05,3.764085199630808e-06,0.027778846000000357
6.309173077,5.918101630756037e-06,9.115669969996309e-06,6.469231942613069e-06,1.876104049827294e-06,2.1729907786575435e-05,3.760952549802008e-06,0.028298076999999644
6.309692308,5.927082648758946e-06,9.062507051887892e-06,6.4025525975947935e-06,1.876118120653563e-06,2.1751345337410305e-05,3.759204301751394e-06,0.02881730799999982
6.310211538,5.927884569399459e-06,9.033117779828984e-06,6.349907621284949e-06,1.8784597781687816e-06,2.1805877133120766e-05,3.7656650389953783e-06,0.029336537999999912
6.310730769,5.929286106605741e-06,9.015634487090078e-06,6.313304710400213e-06,1.8833269403374888e-06,2.1896575844925426e-05,3.784785541124877e-06,0.029855769000000087
6.31125,5.933997702981959e-06,9.004520829805066e-06,6.29947699376582e-06,1.880458173800884e-06,2.2005960089503803e-05,3.81654000290087e-06,0.030375000000000263
6.311769231,5.9391081991814e-06,8.999811184008094e-06,6.301956742678217e-06,1.8756711030171115e-06,2.210706642946038e-05,3.8537090213796415e-06,0.03089423100000044
6.312288462,5.947513694306028e-06,9.002315752512555e-06,6.306121967727079e-06,1.8792637215099949e-06,2.2188566158397963e-05,3.880650344445172e-06,0.031413461999999726
6.312807692,5.972567351111212e-06,9.009854964041324e-06,6.308170110981867e-06,1.8773549801344413e-06,2.2271027396518225e-05,3.890652478585519e-06,0.03193269199999982
6.313326923,6.024122811289851e-06,9.017024626370886e-06,6.310439295032653e-06,1.872620696532285e-06,2.2418182021622e-05,3.892395941139491e-06,0.032451922999999994
6.313846154,6.087762778409251e-06,9.019920673514012e-06,6.317963139966363e-06,1.8764360222581728e-06,2.274661371688216e-05,3.892800627024165e-06,0.03297115400000017
6.314365385,6.147261747493732e-06,9.019842552806203e-06,6.33693769850829e-06,1.8732633901582805e-06,2.3316143203277444e-05,3.893294267540934e-06,0.033490385000000344
6.314884615,6.205803595375841e-06,9.019290988651607e-06,6.35916613359842e-06,1.8583428500527169e-06,2.39269327730167e-05,3.892492975357753e-06,0.03400961500000044
6.315403846,6.276429162784385e-06,9.018833238011087e-06,6.372821968317758e-06,1.8451699853629168e-06,2.4257628007111038e-05,3.889696302798328e-06,0.034528845999999724
6.315923077,6.363616578246913e-06,9.018298890202116e-06,6.379742197209472e-06,1.8374173385397287e-06,2.4292163868438327e-05,3.889096757639201e-06,0.0350480769999999
6.316442308,6.453336827056177e-06,9.017825257457228e-06,6.386043182475039e-06,1.8314624305833967e-06,2.4291879127514836e-05,3.890628255892509e-06,0.035567308000000075
6.316961538,6.527204092960048e-06,9.01801920907327e-06,6.392720932236446e-06,1.8277286236490363e-06,2.436428366328833e-05,3.890352541242279e-06,0.03608653800000017
6.317480769,6.580861148275273e-06,9.019457066846905e-06,6.391761766158269e-06,1.831096285461329e-06,2.442606272627086e-05,3.889292775783289e-06,0.03660576900000034
6.318,6.622372659159245e-06,9.022629803389446e-06,6.377110988656404e-06,1.8375279681350255e-06,2.4446512351907627e-05,3.8892154051670415e-06,0.03712499999999963
6.318519231,6.656762478481745e-06,9.027877869077507e-06,6.357958207764972e-06,1.8371518273105087e-06,2.4454217181783157e-05,3.889045287207628e-06,0.037644230999999806
6.319038462,6.678136802594928e-06,9.035198269276986e-06,6.344410193368115e-06,1.8322827208061048e-06,2.4471179061526603e-05,3.889320427696974e-06,0.03816346199999998
6.319557692,6.683963000980641e-06,9.043894939037522e-06,6.335691457994107e-06,1.830950528474172e-06,2.4517557134367587e-05,3.889289115197954e-06,0.038682692000000074
6.320076923,6.684257990296948e-06,9.053126017297154e-06,6.329301674495102e-06,1.8364161998872085e-06,2.4592012144064536e-05,3.883721686870651e-06,0.03920192300000025
6.320596154,6.6864244348156245e-06,9.062086389787424e-06,6.3272841503919694e-06,1.8518397041050925e-06,2.4669656713771657e-05,3.870676613967289e-06,0.039721154000000425
6.321115385,6.687629057378313e-06,9.06839609802256e-06,6.328982791025583e-06,1.8798072963744724e-06,2.473723298114326e-05,3.854531249079331e-06,0.04024038499999971
6.321634615,6.681137680271376e-06,9.069157176771272e-06,6.329439255228607e-06,1.911524436940533e-06,2.480301216918723e-05,3.839518213902713e-06,0.040759614999999805
6.322153846,6.6674656963475e-06,9.065427866763874e-06,6.327457041624574e-06,1.9287927840206114e-06,2.487875957865427e-05,3.82518414207052e-06,0.04127884599999998
6.322673077,6.656930361053751e-06,9.060893420318664e-06,6.321341394206812e-06,1.9248161253654406e-06,2.496321793813272e-05,3.812146690689722e-06,0.041798077000000156
6.323192308,6.652508882867788e-06,9.056916839085854e-06,6.311152228631993e-06,1.9132643960867823e-06,2.504436367564029e-05,3.8044240275472e-06,0.04231730800000033
6.323711538,6.651510166872294e-06,9.049305845687476e-06,6.30457644122412e-06,1.9152197950293635e-06,2.5112497441652895e-05,3.801740367565112e-06,0.042836538000000424
6.324230769,6.6566520276576684e-06,9.029992714503148e-06,6.305612440824386e-06,1.932839417117704e-06,2.5163465069753853e-05,3.8010727842048967e-06,0.04335576899999971
6.32475,6.669030298093659e-06,8.995849764639408e-06,6.309164139955214e-06,1.945092670746513e-06,2.5194771533752816e-05,3.800391426039204e-06,0.043874999999999886
6.325269231,6.692587321094195e-06,8.948959396503708e-06,6.31011010626448e-06,1.9457958782859246e-06,2.5206898661921783e-05,3.799620941392884e-06,0.04439423100000006
6.325788462,6.733435336755248e-06,8.889826307265722e-06,6.310105474752919e-06,1.9471720224614632e-06,2.5206282477242124e-05,3.801957503731924e-06,0.04491346200000024
6.326307692,6.783593303850844e-06,8.818221009682773e-06,6.312644286484092e-06,1.951836152291532e-06,2.520129670670409e-05,3.8069698541823495e-06,0.04543269200000033
6.326826923,6.827924431434151e-06,8.738398979843965e-06,6.31726653781478e-06,1.959274917173574e-06,2.5196297034382365e-05,3.809418014362902e-06,0.04595192299999962
6.327346154,6.859299894523919e-06,8.660071486889848e-06,6.323288248709082e-06,1.980186093697315e-06,2.5193952865095347e-05,3.8080413816363774e-06,0.04647115399999979
6.327865385,6.878152858624191e-06,8.591877219408776e-06,6.332264237399028e-06,2.0297196634716463e-06,2.5203332993673186e-05,3.805710262374685e-06,0.04699038499999997
6.328384615,6.88781989261942e-06,8.536475846656933e-06,6.344363330565226e-06,2.09935914118852e-06,2.5237345458929223e-05,3.803656663411056e-06,0.04750961500000006
6.328903846,6.888131387862207e-06,8.493971723308108e-06,6.355379353769511e-06,2.158503923223305e-06,2.5298144730181985e-05,3.8023122659477218e-06,0.048028846000000236
6.329423077,6.8790483340633664e-06,8.46439726742492e-06,6.361940795006141e-06,2.190829963351341e-06,2.5371300571408943e-05,3.8024617354773135e-06,0.04854807700000041
6.329942308,6.868795701815176e-06,8.446388278633328e-06,6.366566133810626e-06,2.201044923853168e-06,2.543694813231709e-05,3.802619707461655e-06,0.0490673079999997
6.330461538,6.864644480326064e-06,8.439655130124878e-06,6.371365230349579e-06,2.1995158816866364e-06,2.5485582801459267e-05,3.8032570172319616e-06,0.04958653799999979
6.330980769,6.8668232838243646e-06,8.447908704020858e-06,6.371417834401099e-06,2.197742697336459e-06,2.5525314024716455e-05,3.808266268372654e-06,0.05010576899999997
6.3315,6.872540916432373e-06,8.47626273788916e-06,6.361137225097528e-06,2.2077049785892805e-06,2.558123666047888e-05,3.814565271036286e-06,0.05062500000000014
6.332019231,6.876522959163784e-06,8.524589999149556e-06,6.345766329061898e-06,2.2276043890510848e-06,2.5700377815340257e-05,3.8174889422521145e-06,0.05114423100000032
6.332538462,6.876852903907948e-06,8.583946576777104e-06,6.332279197498059e-06,2.2379998335509637e-06,2.592047144909802e-05,3.816057320713436e-06,0.051663461999999605
6.333057692,6.877402977226384e-06,8.64297907671667e-06,6.317449418764258e-06,2.2367441840181704e-06,2.6172917945611368e-05,3.8108740697054015e-06,0.0521826919999997
6.333576923,6.879072300188695e-06,8.695384702380483e-06,6.29496375730068e-06,2.252155028892623e-06,2.6319677807757027e-05,3.809946582868828e-06,0.05270192299999987
6.334096154,6.880423967991615e-06,8.738189430958444e-06,6.264453604623074e-06,2.290737506604357e-06,2.634811394337798e-05,3.8136842292682336e-06,0.05322115400000005
6.334615385,6.881232398429021e-06,8.76825943482336e-06,6.236349481971187e-06,2.321105352850044e-06,2.634782923207069e-05,3.810275582334149e-06,0.053740385000000224
6.335134615,6.880987149552244e-06,8.784770198486315e-06,6.222241601881503e-06,2.32855948232237e-06,2.63480138535286e-05,3.800321593318406e-06,0.054259615000000316
6.335653846,6.880196413365381e-06,8.791055167143956e-06,6.216427235675915e-06,2.326719732656133e-06,2.6351866069974525e-05,3.796686372039268e-06,0.054778845999999604
6.336173077,6.878971664397109e-06,8.791616480773657e-06,6.204266883652771e-06,2.3248026576143386e-06,2.6368664568702344e-05,3.8061021878370272e-06,0.05529807699999978
6.336692308,6.877683797147244e-06,8.789598419940547e-06,6.184903549037706e-06,2.3224571380937373e-06,2.638182157082576e-05,3.8260103326560415e-06,0.055817307999999954
6.337211538,6.877706122659465e-06,8.78760109717658e-06,6.168829195229759e-06,2.319091608399545e-06,2.6386248991262637e-05,3.848503533559613e-06,0.05633653800000005
6.337730769,6.879022374512619e-06,8.789274668328089e-06,6.163516263687295e-06,2.317528659666117e-06,2.639067366395364e-05,3.865519269980006e-06,0.05685576900000022
6.33825,6.8806264994246645e-06,8.795404589089437e-06,6.1683851520231134e-06,2.3191683789983626e-06,2.6401507458127114e-05,3.874603222844537e-06,0.0573750000000004
6.338769231,6.881509169991827e-06,8.799898322721682e-06,6.176410411767013e-06,2.31812361998961e-06,2.6409479101290847e-05,3.878233473899745e-06,0.057894230999999685
6.339288462,6.882695323742232e-06,8.799464224457256e-06,6.179400221973937e-06,2.3136539293611787e-06,2.6408247784098712e-05,3.878441647955963e-06,0.05841346199999986
6.339807692,6.890195867506135e-06,8.799896704772221e-06,6.171825586303754e-06,2.310478789084676e-06,2.6437170231273127e-05,3.876052590458021e-06,0.05893269199999995
6.340326923,6.911855458693778e-06,8.803743385587537e-06,6.154073659953625e-06,2.309273702104075e-06,2.652373408179321e-05,3.874121562539323e-06,0.05945192300000013
6.340846154,6.950916596273843e-06,8.80754812435814e-06,6.134100902106999e-06,2.30958294708678e-06,2.663893135868247e-05,3.8743038030972e-06,0.059971154000000304
6.341365385,7.0041632318539896e-06,8.810405486155566e-06,6.1206470869514325e-06,2.309449117958452e-06,2.674501199371308e-05,3.87327817194367e-06,0.06049038499999959
6.341884615,7.064123206611895e-06,8.812386672013838e-06,6.115013137385939e-06,2.3117025031585376e-06,2.682270323244469e-05,3.870225679297846e-06,0.061009614999999684
6.342403846,7.121526501482323e-06,8.813657384666778e-06,6.111940180076796e-06,2.320687252031395e-06,2.686420412888214e-05,3.869662209754816e-06,0.06152884599999986
6.342923077,7.169992967528246e-06,8.815024494209686e-06,6.1047056014931405e-06,2.3276025035011054e-06,2.687478054684237e-05,3.872444198372369e-06,0.062048077000000035
6.343442308,7.209507110480728e-06,8.815891077128337e-06,6.088923128359108e-06,2.326839071571013e-06,2.687182063811439e-05,3.874783324449595e-06,0.06256730800000021
6.343961538,7.241930452419278e-06,8.815741000852128e-06,6.067728462153821e-06,2.3289889273590744e-06,2.687260591758632e-05,3.878028113311813e-06,0.0630865380000003
6.344480769,7.266913262772346e-06,8.814164750074207e-06,6.04964251289743e-06,2.3371064708862214e-06,2.6886611878078495e-05,3.887291625128375e-06,0.06360576899999959
6.345,7.281969064447677e-06,8.810425035241927e-06,6.037200555585533e-06,2.340694469459112e-06,2.690881752366696e-05,3.907702881836497e-06,0.06412499999999977
6.345519231,7.287030700281421e-06,8.806032899654652e-06,6.025200671311728e-06,2.3397111694883865e-06,2.692375513613775e-05,3.949838148446848e-06,0.06464423099999994
6.346038462,7.287429253068659e-06,8.804196195891265e-06,6.006713594005902e-06,2.341067801661577e-06,2.6926785062408225e-05,4.012797563016177e-06,0.06516346200000012
6.346557692,7.28745936221183e-06,8.805645653179605e-06,5.978827115813137e-06,2.3430026897458538e-06,2.6926222180727063e-05,4.068232151995754e-06,0.06568269200000021
6.347076923,7.287294563130454e-06,8.808205537975402e-06,5.947196113564537e-06,2.3439226814026245e-06,2.6926258728840645e-05,4.094102371575154e-06,0.06620192300000038
6.347596154,7.289132167278607e-06,8.808895673420672e-06,5.918398545373354e-06,2.3453784434558027e-06,2.692423160719454e-05,4.100126070090115e-06,0.06672115399999967
6.348115385,7.302966893132311e-06,8.804704331350281e-06,5.892344937016801e-06,2.348984434713908e-06,2.691892065504912e-05,4.1015329825915645e-06,0.06724038499999985
6.348634615,7.34006592548693e-06,8.794921693189445e-06,5.866639935393644e-06,2.354891686478117e-06,2.6913628493111952e-05,4.103576965190307e-06,0.06775961499999994
6.349153846,7.3926597455884545e-06,8.78228596518427e-06,5.84273643651012e-06,2.3598553631526866e-06,2.6910186448424243e-05,4.105533355042478e-06,0.06827884600000012
6.349673077,7.438533524242011e-06,8.768378441524322e-06,5.825605239642656e-06,2.3625535819576187e-06,2.6905737631316637e-05,4.10430450661328e-06,0.06879807700000029
6.350192308,7.470871301440005e-06,8.751127444023853e-06,5.816545246806574e-06,2.3640319096859486e-06,2.690046841213038e-05,4.116739394873234e-06,0.06931730799999958
6.350711538,7.499738438085792e-06,8.728539700625741e-06,5.811565016006906e-06,2.3650706035954635e-06,2.6896955434599605e-05,4.1422011934448536e-06,0.06983653799999967
6.351230769,7.534417475252394e-06,8.700782272647768e-06,5.806373552094734e-06,2.3658182714729465e-06,2.689439355369032e-05,4.146795110526125e-06,0.07035576899999985
6.35175,7.569937749775006e-06,8.670289985239307e-06,5.7990856664769714e-06,2.365871866908044e-06,2.689145356314308e-05,4.153890298304864e-06,0.07087500000000002
6.352269231,7.591676238819509e-06,8.640805678805474e-06,5.793115871834812e-06,2.365881719333976e-06,2.6887699521076516e-05,4.195166295204451e-06,0.0713942310000002
6.352788462,7.598203374712065e-06,8.613363426333932e-06,5.792253194751915e-06,2.3649834086611564e-06,2.6884995240560143e-05,4.22239651476725e-06,0.07191346200000037
6.353307692,7.5990719892158525e-06,8.585675467448113e-06,5.791902195772001e-06,2.3501305574627294e-06,2.688776152412542e-05,4.222396219286791e-06,0.07243269199999958
6.353826923,7.599657176194206e-06,8.557694076826001e-06,5.788681693938632e-06,2.314018004385791e-06,2.6897498318609386e-05,4.222783485327802e-06,0.07295192299999975
6.354346154,7.602676233346984e-06,8.533649392413015e-06,5.787071732071655e-06,2.2821331114651787e-06,2.6910750075231003e-05,4.231955232292679e-06,0.07347115399999993
6.354865385,7.608339001611034e-06,8.51629364564214e-06,5.788221449343436e-06,2.2746386432376117e-06,2.692221073149661e-05,4.331547361853121e-06,0.0739903850000001
6.355384615,7.610795329680031e-06,8.503393876777652e-06,5.791378739108643e-06,2.2761856823564398e-06,2.6928650664068567e-05,4.489947529761783e-06,0.0745096150000002
6.355903846,7.603483678561295e-06,8.49143348441005e-06,5.798391440623393e-06,2.273553760277552e-06,2.6930638147897404e-05,4.529286077361887e-06,0.07502884600000037
6.356423077,7.585605310310704e-06,8.479581037927647e-06,5.806838065188362e-06,2.273019513338938e-06,2.693068164606069e-05,4.5544412175411845e-06,0.07554807699999966
6.356942308,7.561972900373857e-06,8.46973437397458e-06,5.815025612644157e-06,2.27775974036614e-06,2.6931309776507397e-05,4.729322109783242e-06,0.07606730799999983
6.357461538,7.538319808791993e-06,8.462956250816032e-06,5.828075801439501e-06,2.2756752165610598e-06,2.6934496025533595e-05,4.887434807930111e-06,0.07658653799999993
6.357980769,7.5159509941280625e-06,8.456987171294705e-06,5.849226334624068e-06,2.258092607753882e-06,2.6939212639333286e-05,4.9309869278012055e-06,0.0771057690000001
6.3585,7.491783915676045e-06,8.448032504352994e-06,5.874374975578134e-06,2.2355813927089828e-06,2.6938023199625067e-05,4.9372679628738735e-06,0.07762500000000028
6.359019231,7.46482487817363e-06,8.433950258326473e-06,5.899604686919556e-06,2.2217538381317514e-06,2.6922217271558012e-05,4.9532537731992e-06,0.07814423100000045
6.359538462,7.44099963462234e-06,8.417746319916988e-06,5.927406048206253e-06,2.2174013198692777e-06,2.6894048240346685e-05,5.003795325028901e-06,0.07866346199999974
6.360057692,7.426384619891205e-06,8.406382191477231e-06,5.960316921425497e-06,2.2169501146931645e-06,2.686509682814481e-05,5.0556918721100345e-06,0.07918269199999983
6.360576923,7.418513200707769e-06,8.402971125243907e-06,5.993446484786458e-06,2.217012146429273e-06,2.6842596545805604e-05,5.0719637513035785e-06,0.07970192300000001
6.361096154,7.410557046985102e-06,8.403243032212841e-06,6.016255228484612e-06,2.21673230204404e-06,2.682736387202946e-05,5.080151123237571e-06,0.08022115400000018
6.361615385,7.395290784466278e-06,8.401210724089861e-06,6.024236755241812e-06,2.2163966768439805e-06,2.6819276051549917e-05,5.156005313520401e-06,0.08074038500000036
6.362134615,7.368981680050971e-06,8.395187865043702e-06,6.023974083586335e-06,2.21679766639357e-06,2.68172005898722e-05,5.512534405737994e-06,0.08125961500000045
6.362653846,7.338485519826442e-06,8.38976448038928e-06,6.023643956342707e-06,2.218098691480273e-06,2.681781251763903e-05,6.054790325215268e-06,0.08177884599999974
6.363173077,7.3130432842698384e-06,8.390904632232767e-06,6.028534582062766e-06,2.218722120925223e-06,2.6818312354628626e-05,6.299815274861426e-06,0.08229807699999991
6.363692308,7.294281979999883e-06,8.395726131158179e-06,6.044116306630455e-06,2.218633663397948e-06,2.681832593474249e-05,6.299639485157654e-06,0.08281730800000009
6.364211538,7.280776817015926e-06,8.395515231991659e-06,6.0734048374163e-06,2.21912872207426e-06,2.681819807890606e-05,6.515438081423812e-06,0.08333653800000018
6.364730769,7.272922615082818e-06,8.387615675612383e-06,6.110003416632255e-06,2.2201565130346314e-06,2.6818043560735144e-05,6.885596524546469e-06,0.08385576900000036
6.36525,7.270570711880773e-06,8.375536917047549e-06,6.143006231262623e-06,2.2232658061587435e-06,2.6817853817516825e-05,7.128766336694563e-06,0.08437499999999964
6.365769231,7.271071559073914e-06,8.362670612974993e-06,6.170854035574734e-06,2.2268579425608416e-06,2.6817465252817444e-05,7.235506245523543e-06,0.08489423099999982
6.366288462,7.271070080151587e-06,8.3489629072762e-06,6.201894075606379e-06,2.2268595303904468e-06,2.68169176448978e-05,7.284186721669523e-06,0.085413462
6.366807692,7.270446136737979e-06,8.32927055808715e-06,6.240516226611793e-06,2.224707607230715e-06,2.6816539058290283e-05,7.301418224641162e-06,0.08593269200000009
6.367326923,7.269521792607442e-06,8.295821698103678e-06,6.280772553257201e-06,2.22428947455134e-06,2.6816485304337056e-05,7.294391597474519e-06,0.08645192300000026
6.367846154,7.259782363629701e-06,8.246000096641449e-06,6.312858690641524e-06,2.227442186676796e-06,2.6816450956316213e-05,7.303431386561389e-06,0.08697115400000044
6.368365385,7.234980035864004e-06,8.186688040373446e-06,6.336588226886092e-06,2.2324202500212846e-06,2.681614810581596e-05,7.362618053347524e-06,0.08749038499999973
6.368884615,7.204902282748649e-06,8.128374241696205e-06,6.367969318836531e-06,2.234654379707404e-06,2.681613057544209e-05,7.446710230711143e-06,0.08800961499999982
6.369403846,7.180372880856426e-06,8.075803786670135e-06,6.418409990022199e-06,2.233693758284893e-06,2.6815417136240537e-05,7.50988468016532e-06,0.088528846
6.369923077,7.158786594420096e-06,8.02446741915332e-06,6.475269322337023e-06,2.2337606915961536e-06,2.6804076195323728e-05,7.530367152693064e-06,0.08904807700000017
6.370442308,7.127948978517791e-06,7.96210327192355e-06,6.518303999757184e-06,2.2351629330564208e-06,2.676237801739432e-05,7.530275169782953e-06,0.08956730800000035
6.370961538,7.073168797797662e-06,7.873972435414111e-06,6.544156718163689e-06,2.235109527490262e-06,2.6679724830392992e-05,7.574207663427124e-06,0.09008653800000044
6.371480769,6.995170309422079e-06,7.755956100913032e-06,6.56308413504538e-06,2.2323161161456946e-06,2.6570459038249657e-05,7.687931201593904e-06,0.09060576899999973
6.372,6.920911681525138e-06,7.62509126864526e-06,6.584917114887214e-06,2.226244648638952e-06,2.645793948885625e-05,7.79742394594698e-06,0.0911249999999999
6.372519231,6.877977665158606e-06,7.507492168537094e-06,6.611283895325407e-06,2.218822083103933e-06,2.635413298116213e-05,7.838987254384674e-06,0.09164423100000008
6.373038462,6.869976653167783e-06,7.41501077800242e-06,6.631317167433304e-06,2.2154504230085792e-06,2.626334225065262e-05,7.841430892362433e-06,0.09216346200000025
6.373557692,6.882844123971051e-06,7.340916400678405e-06,6.636250287916014e-06,2.221110614108324e-06,2.6191406718349535e-05,7.842712663427914e-06,0.09268269200000034
6.374076923,6.902840567508188e-06,7.273108555847517e-06,6.635165180666148e-06,2.2351841414986493e-06,2.6141056331914603e-05,7.843912667856974e-06,0.09320192299999963
6.374596154,6.928663070426154e-06,7.205090844155151e-06,6.639779428276521e-06,2.249979174425168e-06,2.6105199262888923e-05,7.843920903376646e-06,0.0937211539999998
6.375115385,6.965582886750384e-06,7.141912011611581e-06,6.647799179871061e-06,2.2567466218043323e-06,2.607251015624495e-05,7.843881735815618e-06,0.09424038499999998
6.375634615,7.015714452996293e-06,7.094427296033056e-06,6.653197373302761e-06,2.2553443853779544e-06,2.6037079161754488e-05,7.843302886084707e-06,0.09475961500000007
6.376153846,7.083512536316503e-06,7.064323832317866e-06,6.656059772486791e-06,2.253387734525412e-06,2.600560044232709e-05,7.841374896148127e-06,0.09527884600000025
6.376673077,7.17441168998104e-06,7.044250965173524e-06,6.658783002055026e-06,2.2535205952896683e-06,2.599254602209304e-05,7.8400268392864e-06,0.09579807700000043
6.377192308,7.276346409500785e-06,7.028298469360285e-06,6.662954600613983e-06,2.2527207629950462e-06,2.599559657285328e-05,7.844141825616463e-06,0.09631730799999971
6.377711538,7.358040729805486e-06,7.017242393336938e-06,6.668325787540448e-06,2.250818104375593e-06,2.5991064909900252e-05,7.849806277879936e-06,0.0968365379999998
6.378230769,7.397458703375524e-06,7.014577287454118e-06,6.673220026581536e-06,2.251292655625535e-06,2.596514893079959e-05,7.852228779344987e-06,0.09735576899999998
6.37875,7.400328760546664e-06,7.015847402153941e-06,6.677098635234394e-06,2.2540487269973837e-06,2.5919884153975145e-05,7.853617275899502e-06,0.09787500000000016
6.379269231,7.3854531209574835e-06,7.013724982199458e-06,6.6810606528817455e-06,2.2536940001418644e-06,2.584644876564685e-05,7.857712691191479e-06,0.09839423100000033
6.379788462,7.368197511529017e-06,7.009955232820576e-06,6.686368736559651e-06,2.2518957266720736e-06,2.572802449016076e-05,7.867159462779918e-06,0.09891346199999962
6.380307692,7.3539677237525635e-06,7.006867286003151e-06,6.6924164579062486e-06,2.2535095233298707e-06,2.561151301585529e-05,7.875174391966163e-06,0.09943269199999971
6.380826923,7.340773641271722e-06,7.001367010257973e-06,6.695960836665897e-06,2.255282077508586e-06,2.559840041367077e-05,7.87661163329444e-06,0.09995192299999989
6.381346154,7.329777276344861e-06,6.989578302726703e-06,6.694993475799354e-06,2.255297732543929e-06,2.559246413034664e-05,7.876435489201592e-06,0.10047115400000006
6.381865385,7.322812374592624e-06,6.9691876391296205e-06,6.692797396720248e-06,2.255047656746976e-06,2.537407336002497e-05,7.8767164314287e-06,0.10099038500000024
6.382384615,7.319541119278539e-06,6.946157713295376e-06,6.694503407778788e-06,2.254714275380737e-06,2.511197054799952e-05,7.884886018601409e-06,0.10150961500000033
6.382903846,7.317624840799876e-06,6.930255649713931e-06,6.700419156246089e-06,2.2547005400857647e-06,2.5074162920481336e-05,7.910190277757828e-06,0.10202884599999962
6.383423077,7.315379214150502e-06,6.923290941156176e-06,6.705996821491298e-06,2.254912431362652e-06,2.499749978171284e-05,7.937476500840378e-06,0.1025480769999998
6.383942308,7.317886955396002e-06,6.921205485498475e-06,6.707735287371231e-06,2.25582860443662e-06,2.4616160794867218e-05,7.94481727659859e-06,0.10306730799999997
6.384461538,7.33287796340699e-06,6.918314454069791e-06,6.706913263808519e-06,2.253090188562489e-06,2.4148450338222395e-05,7.939927479425533e-06,0.10358653800000006
6.384980769,7.363415166140574e-06,6.910079523807381e-06,6.7063436760610026e-06,2.24551363700216e-06,2.3849221578998888e-05,7.946262478013455e-06,0.10410576900000024
6.3855,7.408314654397911e-06,6.898496529096846e-06,6.707335454676188e-06,2.243103987902142e-06,2.3718606581627614e-05,7.968326634843144e-06,0.10462500000000041
6.386019231,7.463482516881595e-06,6.889024380314271e-06,6.711544732233677e-06,2.2459111034686228e-06,2.3670434010052295e-05,7.993023027635857e-06,0.1051442309999997
6.386538462,7.513100705576089e-06,6.882923780629417e-06,6.719889771318656e-06,2.245644499771812e-06,2.3653461051407907e-05,8.010960208878332e-06,0.10566346199999987
6.387057692,7.536282787685718e-06,6.878618186271022e-06,6.731502807704835e-06,2.2488954628766584e-06,2.364718475236885e-05,8.022361653758194e-06,0.10618269199999997
6.387576923,7.535466982523792e-06,6.87457023278528e-06,6.746471433205666e-06,2.2647033018864192e-06,2.3642706324163815e-05,8.02924142956868e-06,0.10670192300000014
6.388096154,7.536357990252853e-06,6.865948732529429e-06,6.764517657993911e-06,2.282146075639036e-06,2.363280531985272e-05,8.033013480400728e-06,0.10722115400000032
6.388615385,7.554660764397241e-06,6.843712488247179e-06,6.783224927357558e-06,2.2885402555858984e-06,2.360446330815062e-05,8.041914499519744e-06,0.1077403849999996
6.389134615,7.580802440672904e-06,6.798804177917769e-06,6.798117293410001e-06,2.28878816927626e-06,2.354359513850258e-05,8.083713838251363e-06,0.1082596149999997
6.389653846,7.59658866466295e-06,6.72854137155919e-06,6.8039881139740735e-06,2.2894629789801717e-06,2.345207037728564e-05,8.204121170388323e-06,0.10877884599999987
6.390173077,7.598378109186134e-06,6.641562686134746e-06,6.798475208933773e-06,2.2926264870287978e-06,2.335396183324366e-05,8.408600963420778e-06,0.10929807700000005
6.390692308,7.599550908718305e-06,6.55192392903824e-06,6.783208318690071e-06,2.2967626749178785e-06,2.3279438531228e-05,8.641946973772299e-06,0.10981730800000022
6.391211538,7.613267693999555e-06,6.467673359823728e-06,6.763668375718261e-06,2.2964566860674807e-06,2.3239635718392545e-05,8.866033137168629e-06,0.11033653800000032
6.391730769,7.640370796905155e-06,6.390208188789377e-06,6.747513947874313e-06,2.2962938061437755e-06,2.3225879365114097e-05,9.075245613955168e-06,0.1108557689999996
6.39225,7.67154121974629e-06,6.321177326602788e-06,6.738407450389192e-06,2.300368070385894e-06,2.324308318960708e-05,9.225914542005975e-06,0.11137499999999978
6.392769231,7.69767666887787e-06,6.2647270593024165e-06,6.734182900868887e-06,2.3026114893173484e-06,2.3294381765010047e-05,9.259004191761129e-06,0.11189423099999996
6.393288462,7.718728984212418e-06,6.222313521413048e-06,6.731327545168054e-06,2.3030672743141197e-06,2.332641582899453e-05,9.264791975242304e-06,0.11241346200000013
6.393807692,7.740278669100078e-06,6.188429993720772e-06,6.728376048027491e-06,2.3047600443639724e-06,2.3305694277113567e-05,9.373818179121526e-06,0.11293269200000022
6.394326923,7.763642312937906e-06,6.156596150432688e-06,6.729507466822794e-06,2.3056004497684887e-06,2.3297390640094813e-05,9.49049225035843e-06,0.1134519230000004
6.394846154,7.781451841906956e-06,6.126901318275426e-06,6.7411868874750655e-06,2.3074968316495823e-06,2.3356763533174974e-05,9.522097521865911e-06,0.11397115399999969
6.395365385,7.786585248690491e-06,6.102185372441966e-06,6.765141560038562e-06,2.311253781452215e-06,2.346007650007064e-05,9.524428896113504e-06,0.11449038499999986
6.395884615,7.786236644385702e-06,6.082858340185521e-06,6.799636947113047e-06,2.3121523549344487e-06,2.357210141861699e-05,9.53222217305064e-06,0.11500961499999995
6.396403846,7.785961224474791e-06,6.069375215878535e-06,6.83981299337484e-06,2.312042839838929e-06,2.3679036165073735e-05,9.6076406040962e-06,0.11552884600000013
6.396923077,7.78195884626636e-06,6.062892871830441e-06,6.875116803103763e-06,2.313227594608969e-06,2.3762411723790163e-05,9.794760448069555e-06,0.1160480770000003
6.397442308,7.777310155927251e-06,6.0620487479720775e-06,6.896969065688017e-06,2.310419571641909e-06,2.379413810402947e-05,1.000042058025394e-05,0.11656730799999959
6.397961538,7.77526586263983e-06,6.0624431136486966e-06,6.906399129148262e-06,2.3046611980979367e-06,2.377619455554478e-05,1.0143470444809628e-05,0.11708653799999968
6.398480769,7.774063717775478e-06,6.061292523961676e-06,6.90870097219703e-06,2.302887474975217e-06,2.374749225610547e-05,1.0239642852355378e-05,0.11760576899999986
6.399,7.771969080186235e-06,6.0601366431623015e-06,6.9094374020988346e-06,2.3034290682112736e-06,2.3729994733187997e-05,1.0327102178141034e-05,0.11812500000000004
6.399519231,7.767502173775113e-06,6.060453513824116e-06,6.909089381981339e-06,2.301801806709238e-06,2.371536978052764e-05,1.0422444434126668e-05,0.11864423100000021
6.400038462,7.760097213325538e-06,6.059338455425524e-06,6.901025975783286e-06,2.2990103340836783e-06,2.370095650156803e-05,1.0517621092461928e-05,0.11916346200000039
6.400557692,7.753257781308152e-06,6.049408014865831e-06,6.8839757603136205e-06,2.2965196679656635e-06,2.3698699276353777e-05,1.0594525204085225e-05,0.11968269199999959
6.401076923,7.754884449198872e-06,6.027614476421068e-06,6.863701408821887e-06,2.2954522189908096e-06,2.3752181135180696e-05,1.064226645297418e-05,0.12020192299999977
6.401596154,7.76899514094223e-06,6.002544911455103e-06,6.843158940138455e-06,2.2984023419814188e-06,2.394683048234155e-05,1.06612336021831e-05,0.12072115399999994
6.402115385,7.791514179262143e-06,5.985047893838635e-06,6.821601473285956e-06,2.3059417790382726e-06,2.4314416250853804e-05,1.0661523712431108e-05,0.12124038500000012
6.402634615,7.81678444886107e-06,5.978634050442768e-06,6.799463780226902e-06,2.312293949826203e-06,2.4746814105806036e-05,1.0657254186344854e-05,0.12175961500000021
6.403153846,7.843111085474403e-06,5.9820035826769125e-06,6.780457522991471e-06,2.3117628043850677e-06,2.5077177108118492e-05,1.0655424291972008e-05,0.12227884600000039
6.403673077,7.871561807005171e-06,5.9952105133315305e-06,6.76910508587931e-06,2.309128778134011e-06,2.52253891565668e-05,1.0654362229331789e-05,0.12279807699999967
6.404192308,7.902191888624532e-06,6.020199206180288e-06,6.765511936412692e-06,2.310077245060129e-06,2.5245098037305484e-05,1.0652647070338093e-05,0.12331730799999985
6.404711538,7.934495920472672e-06,6.056042617760426e-06,6.764345976828026e-06,2.3108389219832083e-06,2.523933194586384e-05,1.0652304555953076e-05,0.12383653799999994
6.405230769,7.971340027858375e-06,6.096710843390221e-06,6.7614012300718095e-06,2.305337950373101e-06,2.5253127098612614e-05,1.0656476728992224e-05,0.12435576900000012
6.40575,8.015836712368006e-06,6.13665776496047e-06,6.75495426384203e-06,2.2927803829972022e-06,2.5272372867229576e-05,1.066604832517705e-05,0.12487500000000029
6.406269231,8.064327135379477e-06,6.1769680727084166e-06,6.742164716985061e-06,2.282767802341247e-06,2.527919948360112e-05,1.0678200509197316e-05,0.12539423099999958
6.406788462,8.10944071466959e-06,6.222180622465667e-06,6.72254663866752e-06,2.2837864539802915e-06,2.5268732198185528e-05,1.069003650813097e-05,0.12591346199999975
6.407307692,8.146177889729263e-06,6.2716258723732434e-06,6.698987207629606e-06,2.2871303786597577e-06,2.523901020614732e-05,1.0700164751066362e-05,0.12643269199999985
6.407826923,8.172810406519328e-06,6.315791975094108e-06,6.671438847242777e-06,2.2844760701398245e-06,2.5190959042371035e-05,1.0706568234512392e-05,0.12695192300000002
6.408346154,8.190589800566733e-06,6.344444163602694e-06,6.635552294796802e-06,2.281408500457281e-06,2.5138010055727093e-05,1.0707735895752842e-05,0.1274711540000002
6.408865385,8.201958212146951e-06,6.355920027351582e-06,6.591304223108707e-06,2.2817403571597096e-06,2.5096451390597008e-05,1.0706012344264176e-05,0.12799038500000037
6.409384615,8.210154494871805e-06,6.3548704169709295e-06,6.550527093319448e-06,2.2832071046387924e-06,2.5069667313949263e-05,1.0705291861282772e-05,0.12850961499999958
6.409903846,8.217499422730205e-06,6.345592571965765e-06,6.522250919374602e-06,2.2852687092435968e-06,2.5053217462514056e-05,1.0709844088547516e-05,0.12902884599999975
6.410423077,8.223568340850548e-06,6.331140106367832e-06,6.500529719326381e-06,2.290346850868727e-06,2.5044674299065223e-05,1.0725480229857104e-05,0.12954807699999993
6.410942308,8.227623697918069e-06,6.315771358405987e-06,6.475085153838523e-06,2.3016908391528817e-06,2.5042582781817543e-05,1.0749226480070932e-05,0.1300673080000001
6.411461538,8.229516451041509e-06,6.303561083594843e-06,6.44128703125183e-06,2.318294404746161e-06,2.504062666104123e-05,1.076691935588402e-05,0.1305865380000002
6.411980769,8.229895245353276e-06,6.295065030928493e-06,6.4059310332070015e-06,2.3354193279718988e-06,2.5029758542785544e-05,1.0771853934577696e-05,0.13110576900000037
6.4125,8.230089326888425e-06,6.289905759691937e-06,6.37910909868712e-06,2.3488996527460184e-06,2.501764469381941e-05,1.0769243841769226e-05,0.13162499999999966
6.413019231,8.231922227945113e-06,6.292482301965335e-06,6.362743316746124e-06,2.3566387094628435e-06,2.502442436937485e-05,1.0764852936578597e-05,0.13214423099999983
6.413538462,8.237463336767848e-06,6.310824778478341e-06,6.354347971217574e-06,2.3587015863456805e-06,2.499999855268813e-05,1.0762222862978788e-05,0.132663462
6.414057692,8.246916663631472e-06,6.346331285415407e-06,6.351235263548998e-06,2.357853870810335e-06,2.4821435502886864e-05,1.076160734524184e-05,0.1331826920000001
6.414576923,8.257997997349733e-06,6.389277370406799e-06,6.353470763371628e-06,2.3617394835972903e-06,2.44808428665321e-05,1.0760990076050138e-05,0.13370192300000028
6.415096154,8.2678356496971e-06,6.429658096118151e-06,6.365548657924625e-06,2.3715714528993818e-06,2.4127577794707968e-05,1.0760020152279682e-05,0.13422115400000045
6.415615385,8.275324865701942e-06,6.465196410169731e-06,6.3898662602851e-06,2.3783652566471367e-06,2.384838752803469e-05,1.0759465820980404e-05,0.13474038499999974
6.416134615,8.281686069106893e-06,6.495809371791125e-06,6.421889796054386e-06,2.3792873709098683e-06,2.3583827495706476e-05,1.0759463662771715e-05,0.13525961499999983
6.416653846,8.288819651383191e-06,6.5194803724675465e-06,6.454384720294086e-06,2.377527069165334e-06,2.3239511811681638e-05,1.075951037546391e-05,0.135778846
6.417173077,8.297366695032266e-06,6.535041811623447e-06,6.483796427763689e-06,2.3791783190779925e-06,2.2827887863239703e-05,1.0759187986176437e-05,0.13629807700000018
6.417692308,8.30386925245667e-06,6.5471298299803695e-06,6.509613189816607e-06,2.389642489888549e-06,2.2527382701999204e-05,1.075774832449512e-05,0.13681730800000036
6.418211538,8.298058018530248e-06,6.562367195945198e-06,6.530384836698551e-06,2.399669469052153e-06,2.2438681120338283e-05,1.0753652262519257e-05,0.13733653800000045
6.418730769,8.267420192023693e-06,6.576235919965842e-06,6.543948544960077e-06,2.4008130810267326e-06,2.244220489317665e-05,1.0745822619610549e-05,0.13785576899999974
6.41925,8.21452731014031e-06,6.577992062281235e-06,6.550622781527759e-06,2.3997386093398545e-06,2.2428589944321668e-05,1.0735614732331851e-05,0.13837499999999991
6.419769231,8.163605050820946e-06,6.565352408606189e-06,6.552439998735322e-06,2.400039224203264e-06,2.239803847793899e-05,1.0725567806307724e-05,0.1388942310000001
6.420288462,8.134815635993445e-06,6.543590304260495e-06,6.549189369375642e-06,2.39945832210353e-06,2.2370045661014264e-05,1.0716380238080802e-05,0.13941346200000027
6.420807692,8.125613118337194e-06,6.518901943646222e-06,6.537691588215655e-06,2.397805594881951e-06,2.234887401375603e-05,1.0706423541937767e-05,0.13993269200000036
6.421326923,8.126831144504786e-06,6.496442143474351e-06,6.517497346732984e-06,2.398771696627476e-06,2.2334454311701537e-05,1.0693570213318265e-05,0.14045192299999965
6.421846154,8.135227635790876e-06,6.4808041656834e-06,6.493224292952181e-06,2.404404211248047e-06,2.232824286506951e-05,1.0678152855434148e-05,0.14097115399999982
6.422365385,8.149049010960666e-06,6.47325132708767e-06,6.4687335934691485e-06,2.408193201654134e-06,2.2330607915996925e-05,1.0662356450298964e-05,0.141490385
6.422884615,8.169631644805568e-06,6.470999696035026e-06,6.444547637062771e-06,2.407991489339008e-06,2.233734913678564e-05,1.0646750111340529e-05,0.1420096150000001
6.423403846,8.199585793620602e-06,6.470853863947535e-06,6.418939239678163e-06,2.4069959648302293e-06,2.234012152833957e-05,1.0630445623211366e-05,0.14252884600000026
6.423923077,8.242788861280737e-06,6.470135076411277e-06,6.3899915776968016e-06,2.4056759030650056e-06,2.233028249373909e-05,1.0613575730914525e-05,0.14304807700000044
6.424442308,8.308615055699448e-06,6.469653081193873e-06,6.355364503665851e-06,2.4054848282354846e-06,2.230284253784751e-05,1.05989841264295e-05,0.14356730799999973
6.424961538,8.391765975306787e-06,6.474053928772536e-06,6.309842828005359e-06,2.4054128590340508e-06,2.2256818646052252e-05,1.0590344401132982e-05,0.14408653799999982
6.425480769,8.470099511924402e-06,6.482970961746155e-06,6.253505901800062e-06,2.403632248840317e-06,2.2193417716218212e-05,1.0587836447684067e-05,0.144605769
6.426,8.531909402603257e-06,6.489881671595816e-06,6.201809399894147e-06,2.401810088318013e-06,2.21138329735966e-05,1.0588556128993862e-05,0.14512500000000017
6.426519231,8.578879501907402e-06,6.491733324758513e-06,6.172756680957944e-06,2.4011540132841558e-06,2.2015902892813664e-05,1.0589968217542e-05,0.14564423100000035
6.427038462,8.61941190284275e-06,6.49173295026782e-06,6.166238391424513e-06,2.401257290550508e-06,2.189174972038476e-05,1.0590657044533183e-05,0.14616346199999963
6.427557692,8.664335801547827e-06,6.494055858931886e-06,6.168727052585951e-06,2.401056122699131e-06,2.1733159990009068e-05,1.059044251192203e-05,0.14668269199999973
6.428076923,8.716294304299514e-06,6.498519441157756e-06,6.168714610435414e-06,2.4073320312410453e-06,2.1546156371538727e-05,1.059023046157412e-05,0.1472019229999999
6.428596154,8.76691303846503e-06,6.499667969360592e-06,6.162068374336975e-06,2.430844758623178e-06,2.1358433101316683e-05,1.0590245118624397e-05,0.14772115400000008
6.429115385,8.80067015325184e-06,6.497201903272307e-06,6.154042419912284e-06,2.463689702549644e-06,2.1202044247209295e-05,1.0590087366583906e-05,0.14824038500000025
6.429634615,8.806979832344415e-06,6.499437864073666e-06,6.152485442332371e-06,2.4870951485434437e-06,2.108913912530942e-05,1.059008788362838e-05,0.14875961500000034
6.430153846,8.792033109416896e-06,6.507366717646324e-06,6.157540178830065e-06,2.496977466489296e-06,2.1011120555912383e-05,1.0590357277939508e-05,0.14927884599999963
6.430673077,8.769864995064957e-06,6.512952650516404e-06,6.164934400270189e-06,2.5004234080941037e-06,2.0954015325052957e-05,1.0590197618544706e-05,0.1497980769999998
6.431192308,8.747900736798641e-06,6.513114010110507e-06,6.171877068899272e-06,2.501808063494733e-06,2.0908559757125e-05,1.0589626262059878e-05,0.15031730799999998
6.431711538,8.728609584315671e-06,6.510418034218451e-06,6.17693274720532e-06,2.5006214992854077e-06,2.0873874762071547e-05,1.0589736953691022e-05,0.15083653800000008
6.432230769,8.71699096979133e-06,6.508314766535956e-06,6.179247907515802e-06,2.4977767077896904e-06,2.085538039776544e-05,1.0591388011464336e-05,0.15135576900000025
6.43275,8.7122954750783e-06,6.507839238328137e-06,6.1788203847682405e-06,2.4994868231498072e-06,2.085674029278212e-05,1.0593990714226228e-05,0.15187500000000043
6.433269231,8.706682393121503e-06,6.507666902296199e-06,6.178680875489113e-06,2.502106755551172e-06,2.0875691734774623e-05,1.0595669033638929e-05,0.1523942309999997
6.433788462,8.700184495531594e-06,6.507353801206853e-06,6.182683892582387e-06,2.4998466774452136e-06,2.0904736635779605e-05,1.0595651175125045e-05,0.1529134619999999
6.434307692,8.696393425770267e-06,6.504645204784628e-06,6.18809523092939e-06,2.50564429723586e-06,2.0931070835311036e-05,1.0595905711162898e-05,0.15343269199999998
6.434826923,8.697875068658412e-06,6.4975697489751045e-06,6.190394789153724e-06,2.520445691965138e-06,2.0937815857868676e-05,1.059806097743805e-05,0.15395192300000016
6.435346154,8.704673054330564e-06,6.487913912367231e-06,6.191138334608562e-06,2.52382503359901e-06,2.0910531950182943e-05,1.0600214065442505e-05,0.15447115400000033
6.435865385,8.710580060376938e-06,6.478630114223729e-06,6.188043984024343e-06,2.5192159829638974e-06,2.0848176013952807e-05,1.0598935211500864e-05,0.15499038499999962
6.436384615,8.712615275314271e-06,6.471489317293704e-06,6.175797021435058e-06,2.5291936851266345e-06,2.0768204559526688e-05,1.0592865831611836e-05,0.1555096149999997
6.436903846,8.709981300436126e-06,6.465605102361141e-06,6.1624565821428505e-06,2.548661967400807e-06,2.0694466802082823e-05,1.058480641794382e-05,0.1560288459999999
6.437423077,8.70195592377759e-06,6.459324376072929e-06,6.158746863436919e-06,2.558238044534292e-06,2.063319016415989e-05,1.0579934712609786e-05,0.15654807700000006
6.437942308,8.682821501146023e-06,6.454151900612839e-06,6.161059024405979e-06,2.5604573243938734e-06,2.055827329964146e-05,1.057896163362933e-05,0.15706730800000024
6.438461538,8.64405963274606e-06,6.4566856064368505e-06,6.162757497499773e-06,2.561852034042986e-06,2.039947371796854e-05,1.0578432923710731e-05,0.15758653800000033
6.438980769,8.593892909255285e-06,6.472491747969758e-06,6.157961439888741e-06,2.5598771538296093e-06,2.0025191082270357e-05,1.057975453001359e-05,0.15810576899999962
6.4395,8.547209475351791e-06,6.498733343570705e-06,6.141034792578748e-06,2.5569529033002187e-06,1.9347499563519163e-05,1.0584657824293892e-05,0.1586249999999998
6.440019231,8.505753875114848e-06,6.529146189400258e-06,6.121201365454052e-06,2.5564584181072125e-06,1.857476258511731e-05,1.0588259314780224e-05,0.15914423099999997
6.440538462,8.463102961937958e-06,6.560248615074062e-06,6.110513998095431e-06,2.556844591053952e-06,1.8127649468351526e-05,1.0588804591020395e-05,0.15966346200000014
6.441057692,8.417412132515445e-06,6.590615307980221e-06,6.104463776229452e-06,2.556683357726953e-06,1.806455090571867e-05,1.0588616977211514e-05,0.16018269200000024
6.441576923,8.372337380005042e-06,6.6193225085324926e-06,6.093301270918024e-06,2.5579782246360346e-06,1.804531861129252e-05,1.0588051892173768e-05,0.1607019230000004
6.442096154,8.328988935124553e-06,6.645386792644815e-06,6.07484765229716e-06,2.5615217900349545e-06,1.7930750203118183e-05,1.0588307300464064e-05,0.1612211539999997
6.442615385,8.28706936938414e-06,6.6672801318668846e-06,6.0528857405894e-06,2.562990430542623e-06,1.783845219326964e-05,1.059092483404349e-05,0.16174038499999988
6.443134615,8.247280246315074e-06,6.6820512458218e-06,6.029212419306161e-06,2.5623141541901914e-06,1.7811336744861636e-05,1.0596246233938656e-05,0.16225961499999997
6.443653846,8.21247280254459e-06,6.686376663850945e-06,6.004325599693243e-06,2.564740070024979e-06,1.7808441514519457e-05,1.0605135261201812e-05,0.16277884600000014
6.444173077,8.193068251764269e-06,6.680678733554932e-06,5.980780241155298e-06,2.570423436325635e-06,1.779966615781228e-05,1.0618485639108055e-05,0.16329807700000032
6.444692308,8.192646951634367e-06,6.669901893042361e-06,5.960726995522191e-06,2.5741556959248077e-06,1.775906631098534e-05,1.0634203570397976e-05,0.1638173079999996
6.445211538,8.198024068249174e-06,6.658091169364237e-06,5.944769332469723e-06,2.5700402009909067e-06,1.768656445168087e-05,1.064728069829689e-05,0.1643365379999997
6.445730769,8.199332203231638e-06,6.646362728378194e-06,5.933027506513909e-06,2.5560891245381915e-06,1.7607420323537666e-05,1.0654973621673436e-05,0.16485576899999987
6.44625,8.196765201012579e-06,6.635853145745389e-06,5.926387378833416e-06,2.5332781884487115e-06,1.7531847787725068e-05,1.0658423685045896e-05,0.16537500000000005
6.446769231,8.195093776460359e-06,6.627478449209914e-06,5.924608358806132e-06,2.5101905616272805e-06,1.7449583114641085e-05,1.0659395615944097e-05,0.16589423100000023
6.447288462,8.197488362832033e-06,6.619388128526701e-06,5.924610231936671e-06,2.503910360651377e-06,1.7349710228241947e-05,1.0659611337789918e-05,0.1664134620000004
6.447807692,8.198772038888203e-06,6.60939411602247e-06,5.924138839829292e-06,2.5115658812035776e-06,1.7235188699173674e-05,1.0659967770770176e-05,0.1669326919999996
6.448326923,8.19497285626525e-06,6.595468917365882e-06,5.923974155278798e-06,2.513097998891631e-06,1.7119374020421903e-05,1.0660022411080378e-05,0.16745192299999978
6.448846154,8.188151287375367e-06,6.578277224298861e-06,5.924068227155608e-06,2.5021319282172164e-06,1.7012842422155836e-05,1.0660196722737509e-05,0.16797115399999996
6.449365385,8.182138711964267e-06,6.564273420132169e-06,5.924303368401559e-06,2.4873836488431502e-06,1.692205141810811e-05,1.0660724961975442e-05,0.16849038500000013
6.449884615,8.177964751219625e-06,6.558069179775788e-06,5.929851191091658e-06,2.4851743112776795e-06,1.6853227367034213e-05,1.0661021044745707e-05,0.16900961500000022
6.450403846,8.1679862662515e-06,6.559686089921679e-06,5.944407020466423e-06,2.5027361397241303e-06,1.680891962303345e-05,1.0660804752317271e-05,0.1695288460000004
6.450923077,8.144123464664074e-06,6.563825560141061e-06,5.960148720215631e-06,2.5364898821687714e-06,1.6784332428271725e-05,1.065969638026346e-05,0.1700480769999997
6.451442308,8.110241167654833e-06,6.562733940254642e-06,5.967404126936057e-06,2.583067870321446e-06,1.677239953885691e-05,1.0658138851147878e-05,0.17056730799999986
6.451961538,8.078339202366793e-06,6.556295573936993e-06,5.966699243925202e-06,2.631670679615205e-06,1.6769693174334296e-05,1.065714162087284e-05,0.17108653799999995
6.452480769,8.057173532642263e-06,6.550292587745689e-06,5.96212680402608e-06,2.66960480823483e-06,1.6770620729684213e-05,1.0657730837257537e-05,0.17160576900000013
6.453,8.048839459335469e-06,6.54859527399957e-06,5.954221603715076e-06,2.697427968918745e-06,1.675759171350933e-05,1.0661442618141022e-05,0.1721250000000003
6.453519231,8.054017255948692e-06,6.549852167678663e-06,5.942764602939672e-06,2.7442782234520734e-06,1.6708732850593127e-05,1.0667836844001006e-05,0.1726442309999996
6.454038462,8.077143386998703e-06,6.547067209767023e-06,5.931466332218763e-06,2.8489617274771764e-06,1.661974605663532e-05,1.0673610795256596e-05,0.17316346199999977
6.454557692,8.12314942678196e-06,6.534020788893175e-06,5.924118338687057e-06,3.005674820628039e-06,1.6511503354099604e-05,1.0677353846487092e-05,0.17368269199999986
6.455076923,8.185859372588169e-06,6.513095080606868e-06,5.919204709835333e-06,3.170146625648412e-06,1.641375240447965e-05,1.068187917030066e-05,0.17420192300000004
6.455596154,8.246836302461398e-06,6.489034412054162e-06,5.914505164833119e-06,3.309257710563261e-06,1.6342052022536747e-05,1.0690505254850532e-05,0.1747211540000002
6.456115385,8.293687686857514e-06,6.457902324752333e-06,5.914042853506089e-06,3.409327122527036e-06,1.6285517816454802e-05,1.0704787776708735e-05,0.1752403850000004
6.456634615,8.331677905158566e-06,6.411017419520561e-06,5.926003376421997e-06,3.462528557506836e-06,1.620505965832578e-05,1.0725328858987417e-05,0.1757596149999996
6.457153846,8.376982624381901e-06,6.345029089706008e-06,5.943592654636495e-06,3.47606576901297e-06,1.6022460019464057e-05,1.0750056772472884e-05,0.17627884599999977
6.457673077,8.439855472933339e-06,6.264048740109426e-06,5.953168305399181e-06,3.478355388431397e-06,1.5667306715109935e-05,1.0775992844579878e-05,0.17679807699999994
6.458192308,8.508760401852936e-06,6.175689706791673e-06,5.956595468337368e-06,3.4869523703443964e-06,1.524231682585046e-05,1.0803055300402732e-05,0.17731730800000012
6.458711538,8.562881215269472e-06,6.08956853113361e-06,5.9604205564378256e-06,3.498386279745691e-06,1.4987469790834678e-05,1.0832199305155134e-05,0.1778365380000002
6.459230769,8.597063710926284e-06,6.021706250543382e-06,5.969177356380373e-06,3.514872097550445e-06,1.4937393626865904e-05,1.0865052573530168e-05,0.17835576900000039
6.45975,8.619154810416244e-06,5.98918990115652e-06,5.9782559098224114e-06,3.5295384059089952e-06,1.493796980684677e-05,1.090254743612218e-05,0.17887499999999967
6.460269231,8.634490173949548e-06,5.994758315364136e-06,5.972188508336632e-06,3.5259793600991523e-06,1.4937918215403164e-05,1.0939972201830693e-05,0.17939423099999985
6.460788462,8.642665945475418e-06,6.026675872940958e-06,5.951883188900292e-06,3.5699973582325835e-06,1.4931208193667758e-05,1.0967041024637036e-05,0.17991346200000002
6.461307692,8.643828403406156e-06,6.073457046411116e-06,5.9346980339253e-06,3.83474009302755e-06,1.490159148076521e-05,1.0975886934893155e-05,0.18043269200000012
6.461826923,8.64531343032353e-06,6.131369655832174e-06,5.930329258459967e-06,4.372927363955549e-06,1.4880140757920754e-05,1.0969879105203326e-05,0.1809519230000003
6.462346154,8.656704276265658e-06,6.199707870192712e-06,5.937493906619061e-06,4.975658571610244e-06,1.48780466340184e-05,1.0962519483153449e-05,0.18147115399999958
6.462865385,8.679101658628155e-06,6.272118157791727e-06,5.946652880277864e-06,5.417131523792445e-06,1.4878785318989231e-05,1.0965910324652726e-05,0.18199038499999975
6.463384615,8.710048411024719e-06,6.334521628646086e-06,5.94842079727789e-06,5.656875201355939e-06,1.4867159617937088e-05,1.098041758836899e-05,0.18250961499999985
6.463903846,8.75389797237473e-06,6.375918450185834e-06,5.945484147501175e-06,5.776063972047323e-06,1.4857799264954189e-05,1.0995713341444505e-05,0.18302884600000002
6.464423077,8.820064152861846e-06,6.398416536820112e-06,5.945020395960631e-06,5.848070384688463e-06,1.486328240008833e-05,1.1002377893631774e-05,0.1835480770000002
6.464942308,8.91005196290811e-06,6.411491498317371e-06,5.947999998345384e-06,5.9034765465477285e-06,1.4815620093644638e-05,1.1002500158298806e-05,0.18406730800000037
6.465461538,9.0116673058691e-06,6.422726465246199e-06,5.953772105956037e-06,5.943953221878199e-06,1.4665293500443726e-05,1.1006198746842576e-05,0.18458653799999958
6.465980769,9.113239007256876e-06,6.435229198175396e-06,5.964209679370463e-06,5.963440530901222e-06,1.446059586553303e-05,1.1017057987959676e-05,0.18510576899999975
6.4665,9.210870064780458e-06,6.448208467001135e-06,5.977586474731612e-06,5.967747634598648e-06,1.4266964024482033e-05,1.1026232852374729e-05,0.18562499999999993
6.467019231,9.296018154224343e-06,6.460487244869765e-06,5.986180111488578e-06,5.966787678730224e-06,1.4115998306200272e-05,1.1026930052346446e-05,0.1861442310000001
6.467538462,9.351706828859988e-06,6.4720966603517885e-06,5.985094009577478e-06,5.963523297981213e-06,1.401836760040762e-05,1.1035493214838064e-05,0.18666346200000028
6.468057692,9.372142709028105e-06,6.481633696903447e-06,5.976772693444216e-06,5.960664593112228e-06,1.3966919964257412e-05,1.1086667678331275e-05,0.18718269200000037
6.468576923,9.37046676753064e-06,6.485734597807044e-06,5.965475256319723e-06,5.960369100071408e-06,1.3938534664631776e-05,1.1193630034311552e-05,0.18770192299999966
6.469096154,9.36169759766268e-06,6.485642677375969e-06,5.954107814350917e-06,5.959463393337927e-06,1.391046283877799e-05,1.1322346398654436e-05,0.18822115399999984
6.469615385,9.352489112742364e-06,6.488140073221353e-06,5.94464675651293e-06,5.955559332655098e-06,1.386968824341122e-05,1.142029780155042e-05,0.188740385
6.470134615,9.343721594742413e-06,6.493951220365923e-06,5.938283990014112e-06,5.9507858336703965e-06,1.3827236941799583e-05,1.146161719004746e-05,0.1892596150000001
6.470653846,9.34017044668018e-06,6.497917173782087e-06,5.938205852151049e-06,5.947615125448922e-06,1.3812990494459871e-05,1.1458049568151696e-05,0.18977884600000028
6.471173077,9.34764675461918e-06,6.499326922137073e-06,5.9482259001084655e-06,5.946528111011869e-06,1.382995934040665e-05,1.1436517101027764e-05,0.19029807700000045
6.471692308,9.359365589138066e-06,6.5036179861422495e-06,5.9656068054621066e-06,5.947234684888278e-06,1.3850637569172077e-05,1.1416841666237306e-05,0.19081730799999974
6.472211538,9.366799598077862e-06,6.520431080528211e-06,5.984128388154206e-06,5.950244719928263e-06,1.3859662274362252e-05,1.1407047360413849e-05,0.19133653799999983
6.472730769,9.369678916950492e-06,6.55491758945586e-06,6.002204327882946e-06,5.956958167124981e-06,1.3861135026001712e-05,1.1406292111127612e-05,0.191855769
6.47325,9.36729818404155e-06,6.597564140112211e-06,6.021485033037314e-06,5.96597679072146e-06,1.386015767723114e-05,1.1410918131397169e-05,0.19237500000000018
6.473769231,9.356606953021415e-06,6.632656047345413e-06,6.041586912205594e-06,5.9723166196060485e-06,1.3855239940438553e-05,1.1417980977386996e-05,0.19289423100000036
6.474288462,9.338993520236453e-06,6.654883812550492e-06,6.060381151444695e-06,5.974198032776467e-06,1.3847146494518405e-05,1.142593259995696e-05,0.19341346199999965
6.474807692,9.320028595954844e-06,6.672261884668084e-06,6.078617243549452e-06,5.974356351773266e-06,1.3844486673390212e-05,1.143405669176985e-05,0.19393269199999974
6.475326923,9.30049788194979e-06,6.696035492234562e-06,6.099798871857966e-06,5.975113887978015e-06,1.3848493103838998e-05,1.1435240471485e-05,0.19445192299999992
6.475846154,9.277425473765724e-06,6.728268495287715e-06,6.128070705213582e-06,5.97860829281298e-06,1.3852770651829544e-05,1.1430117747610076e-05,0.1949711540000001
6.476365385,9.24942611178641e-06,6.7591794201415095e-06,6.166433918005859e-06,5.986728075689509e-06,1.3855600121573316e-05,1.143193768679528e-05,0.19549038500000027
6.476884615,9.222479649193989e-06,6.776580160946328e-06,6.213756403910103e-06,5.997430721617651e-06,1.3857021730033556e-05,1.1432848977770277e-05,0.19600961500000036
6.477403846,9.208414208243946e-06,6.775701914549763e-06,6.262252296851701e-06,6.007381310654588e-06,1.3857682942760273e-05,1.1421012077123662e-05,0.19652884599999965
6.477923077,9.207387024020676e-06,6.762151018566904e-06,6.298714911424134e-06,6.017094722787791e-06,1.3857683718846792e-05,1.141297481164133e-05,0.19704807699999982
6.478442308,9.20884786589118e-06,6.747836478382611e-06,6.31595878506707e-06,6.030761689012511e-06,1.3851116045750358e-05,1.1413366375690478e-05,0.197567308
6.478961538,9.207620791188112e-06,6.741594274905918e-06,6.320890331178488e-06,6.050376653305481e-06,1.3832154476244754e-05,1.1413190438589354e-05,0.1980865380000001
6.479480769,9.207567276099372e-06,6.74439562817951e-06,6.322749661867105e-06,6.069236211655465e-06,1.3805051607880152e-05,1.1411654058386108e-05,0.19860576900000027
6.48,9.216199915581874e-06,6.754555006097453e-06,6.324099764188224e-06,6.080693975424122e-06,1.378138460932894e-05,1.137926725422923e-05,0.19912500000000044
6.480519231,9.234749234920287e-06,6.768134022821402e-06,6.325494675206499e-06,6.088627075716249e-06,1.3769743220465489e-05,1.1325183896168574e-05,0.19964423099999973
6.481038462,9.25524323994497e-06,6.776129671844199e-06,6.326490293280338e-06,6.098663126384558e-06,1.377126696615594e-05,1.131926010145359e-05,0.2001634619999999
6.481557692,9.268716878758536e-06,6.776559637034543e-06,6.324365155504239e-06,6.111378334244307e-06,1.3781209965224791e-05,1.132451922901402e-05,0.200682692
6.482076923,9.272643805407217e-06,6.776024307579034e-06,6.315299751652581e-06,6.126838784410805e-06,1.379242411999357e-05,1.1280483427882898e-05,0.20120192300000017
6.482596154,9.271294837977585e-06,6.775605192249786e-06,6.29615845691652e-06,6.145915114373078e-06,1.3799841637912791e-05,1.126097943336864e-05,0.20172115400000035
6.483115385,9.26959705519362e-06,6.773970475712628e-06,6.267494056179952e-06,6.167947155262544e-06,1.3803187948563203e-05,1.13164523840778e-05,0.20224038499999963
6.483634615,9.268572858105768e-06,6.772223073674625e-06,6.234466585853057e-06,6.188731080360097e-06,1.3805722796029466e-05,1.1417158584014662e-05,0.20275961499999973
6.484153846,9.268218723305892e-06,6.771122923843257e-06,6.201981159832484e-06,6.201732414799713e-06,1.3808339511182618e-05,1.153387891793717e-05,0.2032788459999999
6.484673077,9.26945783651573e-06,6.770936478150147e-06,6.170114656563897e-06,6.20535941157238e-06,1.3809063306512155e-05,1.1628925596038206e-05,0.20379807700000008
6.485192308,9.273543698012807e-06,6.768424319821416e-06,6.137063122243553e-06,6.205231700900504e-06,1.3809879554193233e-05,1.1683187677596088e-05,0.20431730800000025
6.485711538,9.281469319955093e-06,6.76012243552437e-06,6.109120245598843e-06,6.205347422127116e-06,1.3815042968419474e-05,1.1700525319007928e-05,0.20483653800000035
6.486230769,9.29179524627418e-06,6.74918780385492e-06,6.103129708098517e-06,6.205420220012501e-06,1.382305004405226e-05,1.169714606835888e-05,0.20535576899999963
6.48675,9.300335945269749e-06,6.740717633124979e-06,6.131152023465652e-06,6.205444323847689e-06,1.3828452660636588e-05,1.1716916032219671e-05,0.2058749999999998
6.487269231,9.304630489312124e-06,6.736298983733517e-06,6.19114888069486e-06,6.205315129512388e-06,1.3829537274244918e-05,1.1776638325278216e-05,0.20639423099999998
6.487788462,9.307040550924324e-06,6.7347665764524505e-06,6.272206115880571e-06,6.20471715390074e-06,1.3828410700345411e-05,1.1967405884650348e-05,0.20691346200000016
6.488307692,9.311810066468609e-06,6.733652340946539e-06,6.35448215473226e-06,6.206066129778642e-06,1.3827269792873844e-05,1.2401585107235932e-05,0.20743269200000025
6.488826923,9.322109796660252e-06,6.732179162789063e-06,6.412712957515561e-06,6.216030416075563e-06,1.3828626502566712e-05,1.2806642698681068e-05,0.20795192300000043
6.489346154,9.337818484359275e-06,6.731894806266305e-06,6.435237756928289e-06,6.243857900425256e-06,1.3836361656721876e-05,1.2848291068317474e-05,0.20847115399999971
6.489865385,9.35470644689723e-06,6.733960178189956e-06,6.43446215869188e-06,6.289615751348192e-06,1.3850618868558402e-05,1.2664639548266111e-05,0.2089903849999999
6.490384615,9.369439846526776e-06,6.7373738708611466e-06,6.431072127452865e-06,6.333946490760248e-06,1.3863095676659425e-05,1.2537782349974088e-05,0.20950961499999998
6.490903846,9.38218958680761e-06,6.738927420971547e-06,6.430207140058772e-06,6.358039859196851e-06,1.3866725579806284e-05,1.2510381378220007e-05,0.21002884600000016
6.491423077,9.396723683852764e-06,6.735747192257038e-06,6.4136846352182215e-06,6.364943643855271e-06,1.3866649053412782e-05,1.2519257693118422e-05,0.21054807700000033
6.491942308,9.417805765215037e-06,6.729312119728727e-06,6.371167223448282e-06,6.36618499020566e-06,1.3870920340246988e-05,1.2540367337597205e-05,0.21106730799999962
6.492461538,9.444223112550548e-06,6.724302520212432e-06,6.325909370958805e-06,6.366353631943743e-06,1.3878789303510536e-05,1.2573082752344114e-05,0.2115865379999997
6.492980769,9.469676138028475e-06,6.722756451714659e-06,6.2988118595340505e-06,6.365922842495932e-06,1.3886428177178448e-05,1.2597687582958292e-05,0.2121057689999999
6.4935,9.489018900775749e-06,6.723101488016951e-06,6.283905967346887e-06,6.366076994401336e-06,1.3893475620073002e-05,1.2593041476632228e-05,0.21262500000000006
6.494019231,9.500843453802125e-06,6.723479005794562e-06,6.271691759653585e-06,6.368760549945224e-06,1.3900921222080784e-05,1.256966376223332e-05,0.21314423100000024
6.494538462,9.506661590325276e-06,6.7228057496498266e-06,6.263919703325134e-06,6.373927801277568e-06,1.3907886892593031e-05,1.2552415566938238e-05,0.21366346200000041
6.495057692,9.508841000920708e-06,6.720517592835912e-06,6.266353426651357e-06,6.3796038790941164e-06,1.3912535588756838e-05,1.2554653695885396e-05,0.21418269199999962
6.495576923,9.5092617204878e-06,6.717514135263361e-06,6.273075456214792e-06,6.385122983198608e-06,1.3915351739226922e-05,1.2564298173586474e-05,0.2147019229999998
6.496096154,9.508932015668575e-06,6.717101341670314e-06,6.273164615984719e-06,6.389926922487837e-06,1.3919175063594894e-05,1.2544233040900876e-05,0.21522115399999997
6.496615385,9.507964822917891e-06,6.722390524899524e-06,6.266886358135314e-06,6.392008238744582e-06,1.3928130174102564e-05,1.2479899141571983e-05,0.21574038500000015
6.497134615,9.505023643724998e-06,6.733386557736311e-06,6.260412346401374e-06,6.391586518333097e-06,1.3944177855864045e-05,1.2416382908266078e-05,0.21625961500000024
6.497653846,9.496389207369238e-06,6.7499147664687336e-06,6.26882048236652e-06,6.391649994384866e-06,1.3961207255457016e-05,1.2392853343580188e-05,0.2167788460000004
6.498173077,9.477897763092742e-06,6.774253839775989e-06,6.310232243083906e-06,6.392643417926745e-06,1.3968075120577143e-05,1.2391384544017957e-05,0.2172980769999997
6.498692308,9.45048691045242e-06,6.806301444452577e-06,6.375161570289048e-06,6.39117745169571e-06,1.396125575823254e-05,1.2392461816425558e-05,0.21781730799999988
6.499211538,9.421808913841252e-06,6.836971856752109e-06,6.431769152372456e-06,6.386146519020449e-06,1.3949291450675022e-05,1.2396850670585328e-05,0.21833653799999997
6.499730769,9.400399999134568e-06,6.856157584256528e-06,6.463341811375837e-06,6.382328085533197e-06,1.394141223490337e-05,1.24000706516415e-05,0.21885576900000014
6.50025,9.390732261137483e-06,6.864180737532309e-06,6.4749900333789045e-06,6.384256710995692e-06,1.3939112021874929e-05,1.2400188954722576e-05,0.21937500000000032
6.500769231,9.389615840310414e-06,6.866712185219406e-06,6.472525296365983e-06,6.389845611112511e-06,1.3940851582164774e-05,1.2400468010401844e-05,0.2198942309999996
6.501288462,9.382652186429178e-06,6.867394121034823e-06,6.476760721100128e-06,6.394908318546392e-06,1.3947902751344124e-05,1.2402752181889746e-05,0.22041346199999978
6.501807692,9.355670282931897e-06,6.867231593698684e-06,6.574608569163194e-06,6.399316360515244e-06,1.3965096163751391e-05,1.2406813112009487e-05,0.22093269199999988
6.502326923,9.31636338324088e-06,6.866482873876102e-06,6.880403280297338e-06,6.404345406650902e-06,1.399538048656022e-05,1.2410775408029428e-05,0.22145192300000005
6.502846154,9.294888673037672e-06,6.865616359066747e-06,7.394954590237632e-06,6.40849040136304e-06,1.4035224162609816e-05,1.2417200806982524e-05,0.22197115400000023
6.503365385,9.314429427541069e-06,6.864365207500945e-06,7.99245456932952e-06,6.409414982548853e-06,1.4076896725535522e-05,1.242716485958278e-05,0.2224903850000004
6.503884615,9.36625260360202e-06,6.863090871267486e-06,8.548699136550451e-06,6.40844400761137e-06,1.411079526086348e-05,1.2436353143528423e-05,0.2230096149999996
6.504403846,9.421667957729608e-06,6.863266018369945e-06,9.00568169107043e-06,6.409351643264593e-06,1.413011520763343e-05,1.2440972107566993e-05,0.22352884599999978
6.504923077,9.458838421532552e-06,6.863402587781443e-06,9.350723673184508e-06,6.41231908678062e-06,1.4136246200857429e-05,1.2439628530005022e-05,0.22404807699999996
6.505442308,9.4764372485969e-06,6.86251768764362e-06,9.5891513051162e-06,6.413949870281314e-06,1.4135761662239607e-05,1.2437296829442818e-05,0.22456730800000013
6.505961538,9.485256337638703e-06,6.863803100736045e-06,9.734349141952127e-06,6.413882981592899e-06,1.4134127708337307e-05,1.2437842364353207e-05,0.22508653800000022
6.506480769,9.491466427864134e-06,6.8679261879917885e-06,9.805291772867572e-06,6.413881440642423e-06,1.4134649718027193e-05,1.2438728034500406e-05,0.2256057690000004
6.507,9.497245239819325e-06,6.873393775927432e-06,9.826112827233097e-06,6.413523635175514e-06,1.414117259506782e-05,1.2438941828614954e-05,0.2261249999999997
6.507519231,9.503244298341914e-06,6.880936494852172e-06,9.82282869759938e-06,6.413635835541227e-06,1.4156037311115414e-05,1.2433769726455042e-05,0.22664423099999986
6.508038462,9.508794289285527e-06,6.892398418490672e-06,9.818481189482968e-06,6.416194894176551e-06,1.4173672502685582e-05,1.2417160181373738e-05,0.22716346200000004
6.508557692,9.512662361956752e-06,6.907635170393862e-06,9.833691506115378e-06,6.420543429310644e-06,1.4185853856361552e-05,1.2397944576711416e-05,0.22768269200000013
6.509076923,9.51100898846724e-06,6.921729586254405e-06,9.891083124330318e-06,6.426130814544455e-06,1.4190499027629344e-05,1.2390091959553545e-05,0.2282019230000003
6.509596154,9.502398294694946e-06,6.929441214863116e-06,1.0015457276215882e-05,6.435381310687856e-06,1.418999977414248e-05,1.2390733833722983e-05,0.2287211539999996
6.510115385,9.48949616435386e-06,6.932424081057186e-06,1.0224456727838142e-05,6.4523160986439625e-06,1.4187688164047998e-05,1.2386035667724448e-05,0.22924038499999977
6.510634615,9.47114613621885e-06,6.935366924892446e-06,1.0515943356687876e-05,6.476391654979748e-06,1.4183878249091791e-05,1.2371303295609475e-05,0.22975961499999986
6.511153846,9.441092544771664e-06,6.939727684832239e-06,1.0867655676514937e-05,6.4988011546213335e-06,1.4177662407573078e-05,1.2352342008945276e-05,0.23027884600000004
6.511673077,9.401746474990638e-06,6.945538100536065e-06,1.1244833818668084e-05,6.513136382905735e-06,1.4171732295910578e-05,1.2334145658064377e-05,0.2307980770000002
6.512192308,9.366013205656835e-06,6.951182761506952e-06,1.1599424462469029e-05,6.519814259115247e-06,1.4168399577113122e-05,1.231805319412329e-05,0.2313173080000004
6.512711538,9.339078192073049e-06,6.953068529174519e-06,1.187488724054731e-05,6.52082753599394e-06,1.4166848020498849e-05,1.2305313465163018e-05,0.2318365379999996
6.513230769,9.314565296979168e-06,6.951025099150926e-06,1.20384336061238e-05,6.521376544658231e-06,1.4166170473605414e-05,1.2296521794214355e-05,0.23235576899999977
6.51375,9.286352024709168e-06,6.94835616472485e-06,1.2109018883227585e-05,6.524287955434203e-06,1.4166360099817496e-05,1.228606771453367e-05,0.23287499999999994
6.514269231,9.25816519608518e-06,6.9469109671840365e-06,1.2133549716555856e-05,6.525698011178882e-06,1.416749381652582e-05,1.2253824310164028e-05,0.23339423100000012
6.514788462,9.239293933296498e-06,6.946072867243638e-06,1.2145784796489318e-05,6.5254187753403584e-06,1.416901773225237e-05,1.2167216511755909e-05,0.2339134620000003
6.515307692,9.229494841143636e-06,6.943771980793356e-06,1.2157255879333808e-05,6.52870650519326e-06,1.4168675916236935e-05,1.2019621365976326e-05,0.2344326920000004
6.515826923,9.221511452392972e-06,6.93899559380656e-06,1.2165900146202405e-05,6.539660527849807e-06,1.4163674414687998e-05,1.1846129177980748e-05,0.23495192299999967
6.516346154,9.208727195595157e-06,6.932877875056129e-06,1.2168875657782874e-05,6.556153408123649e-06,1.4158892866798352e-05,1.1672974004837746e-05,0.23547115399999985
6.516865385,9.186738159922236e-06,6.927169964756332e-06,1.2168929733870996e-05,6.569047265379617e-06,1.4159372019416725e-05,1.1504433182694027e-05,0.23599038500000002
6.517384615,9.16044180633184e-06,6.923355011831998e-06,1.2167903052598112e-05,6.574659347504503e-06,1.4130858675985447e-05,1.1377549274537932e-05,0.23650961500000012
6.517903846,9.138325770788115e-06,6.916194048884196e-06,1.2164958338283668e-05,6.57780379974804e-06,1.40425243831489e-05,1.134659113892359e-05,0.2370288460000003
6.518423077,9.121112753296223e-06,6.899413014088601e-06,1.2158215695457902e-05,6.5825173179453854e-06,1.3968340093129444e-05,1.1341587651901031e-05,0.23754807699999958
6.518942308,9.104824469682602e-06,6.882006897122695e-06,1.214321789355125e-05,6.589524568298159e-06,1.3965892896831287e-05,1.125524569815006e-05,0.23806730799999976
6.519461538,9.089511401974837e-06,6.885615319907635e-06,1.2116308076507576e-05,6.595337272925751e-06,1.3936633671726131e-05,1.116356488283086e-05,0.23858653799999985
6.519980769,9.084016256637292e-06,6.932688175394309e-06,1.2079993836953696e-05,6.596626645011743e-06,1.3794316998893356e-05,1.1144005225543292e-05,0.23910576900000002
6.5205,9.094278620321306e-06,7.016547550390495e-06,1.204132752729185e-05,6.5955440264982375e-06,1.357547902320475e-05,1.1148598849167568e-05,0.2396250000000002
6.521019231,9.112159636043644e-06,7.093562930994978e-06,1.2006193033283512e-05,6.595049723796253e-06,1.333490722993068e-05,1.1145559860273858e-05,0.24014423100000037
6.521538462,9.128221795995849e-06,7.134342022368086e-06,1.1976965286424948e-05,6.59502761864286e-06,1.309528410246922e-05,1.1080278196627284e-05,0.24066346199999966
6.522057692,9.140124667607794e-06,7.146438421083551e-06,1.1954680332910518e-05,6.5946035594660894e-06,1.2892214033106711e-05,1.091501145789558e-05,0.24118269199999975
6.522576923,9.148966953740122e-06,7.147542735995669e-06,1.1940764782888928e-05,6.593799661638022e-06,1.2781870579803785e-05,1.0730188541982852e-05,0.24170192299999993
6.523096154,9.15760987873948e-06,7.147235529240043e-06,1.1934208860822932e-05,6.595774917279397e-06,1.2766147966491112e-05,1.0599309854125837e-05,0.2422211540000001
6.523615385,9.166183072814947e-06,7.147723926577293e-06,1.193146853265443e-05,6.609273686873475e-06,1.277623280939613e-05,1.050837770493262e-05,0.24274038500000028
6.524134615,9.172325117004283e-06,7.147587789150591e-06,1.1931108258756516e-05,6.6372984631954605e-06,1.2771559976045709e-05,1.0419562022126803e-05,0.24325961500000037
6.524653846,9.177116425167676e-06,7.145268848498808e-06,1.1934468426850678e-05,6.6659069376369375e-06,1.2765777847504109e-05,1.0315722258222336e-05,0.24377884599999966
6.525173077,9.187357421971144e-06,7.141531509586884e-06,1.1944970970133024e-05,6.681545934267706e-06,1.2763677020926244e-05,1.0208836788669057e-05,0.24429807699999984
6.525692308,9.21757745116281e-06,7.140223408414074e-06,1.1968848721894472e-05,6.686342767407224e-06,1.27455095512165e-05,1.0121512176030247e-05,0.244817308
6.526211538,9.281720282562869e-06,7.145131197298571e-06,1.2010349666549876e-05,6.6869487886255404e-06,1.2630292093979478e-05,1.0065087218865622e-05,0.2453365380000001
6.526730769,9.371095702242078e-06,7.153846115580389e-06,1.2064000602916392e-05,6.685308691565623e-06,1.2245706892388251e-05,1.0038927423950444e-05,0.24585576900000028
6.52725,9.45664376638806e-06,7.158127248352815e-06,1.2119294526850529e-05,6.68166380056157e-06,1.148493429028559e-05,1.0033378146105527e-05,0.24637500000000045
6.527769231,9.520299505900584e-06,7.151106667933429e-06,1.2173065667904518e-05,6.678208482180619e-06,1.0497007273771993e-05,1.0034284309936182e-05,0.24689423099999974
6.528288462,9.565835421709911e-06,7.132308379781316e-06,1.2230808306612591e-05,6.677406282291304e-06,9.64251601908886e-06,1.0036528523156775e-05,0.24741346199999992
6.528807692,9.601704002387954e-06,7.105617803412175e-06,1.2298842497003458e-05,6.679940899749038e-06,9.2027378037438e-06,1.0042728748129526e-05,0.247932692
6.529326923,9.624965010738609e-06,7.075647855627153e-06,1.237767933324786e-05,6.686994728479841e-06,9.11344585901045e-06,1.004921637090612e-05,0.24845192300000019
6.529846154,9.62357187347384e-06,7.047125981371919e-06,1.2462359993489717e-05,6.697646296245504e-06,9.114941021520183e-06,1.0049006803568034e-05,0.24897115400000036
6.530365385,9.596257188757122e-06,7.021153177168847e-06,1.2549923260030973e-05,6.706978844192925e-06,9.076452249971814e-06,1.0040508134556788e-05,0.24949038499999965
6.530884615,9.55594560113348e-06,6.990028932663184e-06,1.2646890635412218e-05,6.712681173712195e-06,9.01304363082393e-06,1.00266776599468e-05,0.25000961499999974
6.531403846,9.513839449783108e-06,6.942375954349564e-06,1.276784243941456e-05,6.71542042071708e-06,8.949208386146944e-06,1.001170074361879e-05,0.2505288459999999
6.531923077,9.475074149143653e-06,6.873370626345042e-06,1.292223450015493e-05,6.717353135019255e-06,8.880665447528755e-06,9.998076794938455e-06,0.2510480770000001
6.532442308,9.442755766704168e-06,6.790204942989596e-06,1.3097535042905245e-05,6.723734144668516e-06,8.809256080524688e-06,9.986936927317375e-06,0.25156730800000027
6.532961538,9.419837564158572e-06,6.712784329575357e-06,1.325646503966536e-05,6.735260165476118e-06,8.756860836760482e-06,9.980877363687304e-06,0.25208653800000036
6.533480769,9.405198110295528e-06,6.663445558392137e-06,1.335542493053951e-05,6.745730312487632e-06,8.732629632061951e-06,9.981813474273644e-06,0.25260576899999965
6.534,9.395348899283636e-06,6.655100542566839e-06,1.3378251121395506e-05,6.7514722417610016e-06,8.724770719106474e-06,9.985846622735864e-06,0.2531249999999998
6.534519231,9.392834695224344e-06,6.694525834757762e-06,1.337673330055166e-05,6.753227518038276e-06,8.721635676463108e-06,9.987236907482018e-06,0.253644231
6.535038462,9.396072201888524e-06,6.785332287161153e-06,1.345979614599288e-05,6.752403210230286e-06,8.715324194813732e-06,9.98155638108213e-06,0.2541634620000002
6.535557692,9.39622645184081e-06,6.917298964910316e-06,1.3682882757043132e-05,6.751349778265909e-06,8.696463591603702e-06,9.963588836720785e-06,0.25468269200000027
6.536076923,9.39359706183666e-06,7.061737540841032e-06,1.398352947055498e-05,6.757314622681707e-06,8.659476077503572e-06,9.937816861911917e-06,0.25520192300000044
6.536596154,9.39248811835728e-06,7.186466879732396e-06,1.4280481020377817e-05,6.788529138052795e-06,8.60643520115142e-06,9.919950960021587e-06,0.25572115399999973
6.537115385,9.393672723440452e-06,7.274048671805325e-06,1.4561154663442692e-05,6.86843914906551e-06,8.547758830277133e-06,9.916623506654284e-06,0.2562403849999999
6.537634615,9.395315834943475e-06,7.3251074020486e-06,1.4854737311140036e-05,6.998435955484515e-06,8.49988338118055e-06,9.921766757528564e-06,0.256759615
6.538153846,9.393010552086948e-06,7.347920424085308e-06,1.5177880148668371e-05,7.140849153714277e-06,8.471369423931684e-06,9.929587911140888e-06,0.25727884600000017
6.538673077,9.394342482234386e-06,7.351116935778393e-06,1.551583290290436e-05,7.249801028315203e-06,8.45735742248843e-06,9.937072884220796e-06,0.25779807700000035
6.539192308,9.409343721285866e-06,7.345625745876154e-06,1.5841153309323498e-05,7.311738268266382e-06,8.450089821029958e-06,9.94433025047866e-06,0.25831730799999963
6.539711538,9.43261649783749e-06,7.337895350126322e-06,1.612636640107444e-05,7.341416803864943e-06,8.443653472339819e-06,9.954248984985497e-06,0.2588365379999997
6.540230769,9.460799305100885e-06,7.320721135978521e-06,1.6338465844826725e-05,7.358610193647382e-06,8.432989236934684e-06,9.96819089364796e-06,0.2593557689999999
6.54075,9.503048851338184e-06,7.288722297496149e-06,1.6452777069843115e-05,7.37834207741236e-06,8.421706459291174e-06,9.983803085642945e-06,0.2598750000000001
6.541269231,9.567940157819126e-06,7.256024417212334e-06,1.6482679367030533e-05,7.406610486812432e-06,8.418468738592774e-06,9.996151123603535e-06,0.26039423100000025
6.541788462,9.64255510438175e-06,7.240049246913288e-06,1.6472570554486887e-05,7.439978731246462e-06,8.42227756180333e-06,1.000250675853472e-05,0.26091346200000043
6.542307692,9.698635464636628e-06,7.23976646238887e-06,1.6457880150888453e-05,7.470476239693064e-06,8.431236547238146e-06,1.000453538856202e-05,0.26143269199999963
6.542826923,9.730629787459134e-06,7.243274281744245e-06,1.6450785958568302e-05,7.493566922949876e-06,8.449127171386062e-06,1.0005211849916615e-05,0.2619519229999998
6.543346154,9.757683289208332e-06,7.248018528820929e-06,1.6456290735364904e-05,7.5120491363905565e-06,8.471584586625256e-06,1.0006351419248424e-05,0.262471154
6.543865385,9.800964174367502e-06,7.265208128814406e-06,1.648585951232767e-05,7.528623521138455e-06,8.486755800301836e-06,1.0009091010976413e-05,0.26299038500000016
6.544384615,9.874156545254038e-06,7.301101486149451e-06,1.6557796955403557e-05,7.541876781399426e-06,8.49271519547948e-06,1.001297258213681e-05,0.26350961500000025
6.544903846,9.965887654239756e-06,7.345732570936898e-06,1.6688627194727327e-05,7.549621997154493e-06,8.49959336638031e-06,1.0015102804104588e-05,0.26402884600000043
6.545423077,1.0046237553948707e-05,7.3877602320635855e-06,1.6890733209461576e-05,7.551445087217634e-06,8.509411874854104e-06,1.0015083330206494e-05,0.2645480769999997
6.545942308,1.0098395422328074e-05,7.428287908904634e-06,1.7182259900530844e-05,7.551482499340674e-06,8.513488797057505e-06,1.0016011557955577e-05,0.2650673079999999
6.546461538,1.012171375586329e-05,7.476567008941619e-06,1.758423793547485e-05,7.554646792687366e-06,8.50726949494832e-06,1.0018594084316835e-05,0.265586538
6.546980769,1.011948537741219e-05,7.538614757331586e-06,1.8091051646056057e-05,7.56385228478197e-06,8.490088473062093e-06,1.0021758373631476e-05,0.26610576900000016
6.5475,1.0101858418462429e-05,7.613605012609045e-06,1.8647369483562936e-05,7.585526491548741e-06,8.460882019797394e-06,1.0026916583391175e-05,0.26662500000000033
6.548019231,1.008729865668532e-05,7.696850327873124e-06,1.917129555051228e-05,7.631063992371805e-06,8.421915039796819e-06,1.003798390412036e-05,0.2671442309999996
6.548538462,1.0087514618465382e-05,7.781755090899406e-06,1.96016085099618e-05,7.712157147937787e-06,8.38031167698545e-06,1.0053923723376073e-05,0.2676634619999998
6.549057692,1.009950207856567e-05,7.857626125882816e-06,1.991362906142217e-05,7.822464098104887e-06,8.343903439565639e-06,1.0066226324597913e-05,0.2681826919999999
6.549576923,1.0116919382189724e-05,7.907691495257461e-06,2.0104520587168133e-05,7.929598926020688e-06,8.31689585713239e-06,1.0071699859460245e-05,0.26870192300000006
6.550096154,1.0144720225814274e-05,7.923299538034388e-06,2.0186962308904785e-05,8.008710716798022e-06,8.298778310470055e-06,1.007437550797874e-05,0.26922115400000024
6.550615385,1.0193411130768942e-05,7.918339367186638e-06,2.0199119886929917e-05,8.063500224591912e-06,8.286292562614502e-06,1.0077885539572984e-05,0.2697403850000004
6.551134615,1.0258558563687918e-05,7.912914770544646e-06,2.020467557753402e-05,8.107829932394957e-06,8.275003001676201e-06,1.008343020303464e-05,0.2702596149999996
6.551653846,1.0323116026045795e-05,7.913816194670303e-06,2.026413837665093e-05,8.147649645151124e-06,8.261006055021899e-06,1.0088056843327733e-05,0.2707788459999998
6.552173077,1.0374105149472777e-05,7.917544988693023e-06,2.04025698004691e-05,8.177658022406554e-06,8.24316658532663e-06,1.008956977236422e-05,0.27129807699999997
6.552692308,1.0405578788114324e-05,7.918807662621493e-06,2.0610407774860957e-05,8.192613918700592e-06,8.223067761475819e-06,1.0089637514207738e-05,0.27181730800000015
6.553211538,1.0413679554902555e-05,7.915142110941817e-06,2.086963927668737e-05,8.194541356137842e-06,8.203289131745483e-06,1.008963877021391e-05,0.27233653800000024
6.553730769,1.039725060675346e-05,7.910381715389602e-06,2.1172002719388503e-05,8.187433433035438e-06,8.187973355161306e-06,1.0089768939917029e-05,0.2728557690000004
6.55425,1.0364444303663464e-05,7.91131054932234e-06,2.151237576584617e-05,8.177442660258273e-06,8.183210595819256e-06,1.0090087967386962e-05,0.2733749999999997
6.554769231,1.033212420271366e-05,7.916324925917564e-06,2.18658622074883e-05,8.171902218292411e-06,8.188892578549463e-06,1.0090351463836768e-05,0.2738942309999999
6.555288462,1.0312734640997548e-05,7.918986241248781e-06,2.218007370045027e-05,8.172262442917015e-06,8.192548737079566e-06,1.0090470858872471e-05,0.27441346200000005
6.555807692,1.0305748936890234e-05,7.919852107645174e-06,2.240787239240905e-05,8.174828271620168e-06,8.181460634178979e-06,1.0090749979238531e-05,0.27493269200000015
6.556326923,1.0305601815683956e-05,7.920993457960925e-06,2.254645089415855e-05,8.177348641247336e-06,8.155857646240389e-06,1.0090997959742938e-05,0.2754519230000003
6.556846154,1.0310374227437616e-05,7.921471434305376e-06,2.262874266105697e-05,8.180986119052795e-06,8.122016628105171e-06,1.0090511097780892e-05,0.2759711539999996
6.557365385,1.032478640644938e-05,7.92138944255261e-06,2.2686292882815917e-05,8.188055403339214e-06,8.08591836088577e-06,1.0088832622931734e-05,0.2764903849999998
6.557884615,1.0367433374346455e-05,7.921600500432604e-06,2.2730254797701232e-05,8.200090479871555e-06,8.052494218971884e-06,1.0086306124375582e-05,0.2770096149999999
6.558403846,1.046575222806694e-05,7.922242131224177e-06,2.2755292001343025e-05,8.219717032927877e-06,8.013414597691816e-06,1.0084554389086982e-05,0.27752884600000005
6.558923077,1.0634575509305276e-05,7.92261252304827e-06,2.2759860118484916e-05,8.245589617513135e-06,7.958466372416198e-06,1.0086467419956628e-05,0.2780480770000002
6.559442308,1.0870308442660794e-05,7.922841112532949e-06,2.2758573561139868e-05,8.266348004116852e-06,7.896815269107478e-06,1.0094303533968764e-05,0.2785673080000004
6.559961538,1.1156006988292104e-05,7.923004986957379e-06,2.276447346098177e-05,8.274211673631125e-06,7.845062990342653e-06,1.0105074541528952e-05,0.2790865379999996
6.560480769,1.1462184914937422e-05,7.922765981328997e-06,2.277586702996787e-05,8.274430833061859e-06,7.806141145722668e-06,1.0110956375635991e-05,0.2796057689999998
6.561,1.1753637343031449e-05,7.925974503614295e-06,2.278786772852598e-05,8.276067098319653e-06,7.756824237223446e-06,1.0109098588661007e-05,0.28012499999999996
6.561519231,1.199949304039223e-05,7.935437243901536e-06,2.280035302482883e-05,8.288676422405312e-06,7.677038386029128e-06,1.0103727358428909e-05,0.28064423100000013
6.562038462,1.218013022573898e-05,7.94450926281008e-06,2.281454700062177e-05,8.319485653233252e-06,7.581233389933584e-06,1.0098341471091533e-05,0.2811634620000003
6.562557692,1.2290610083247246e-05,7.946590091527338e-06,2.282951073670353e-05,8.361166383915094e-06,7.494208216052964e-06,1.0094560992732017e-05,0.2816826920000004
6.563076923,1.2343655977273874e-05,7.942566524232497e-06,2.2842115069726875e-05,8.396014067792203e-06,7.42707674251548e-06,1.009541272578787e-05,0.2822019229999997
6.563596154,1.2363953841893482e-05,7.932983628001378e-06,2.285078878931599e-05,8.41583022937824e-06,7.379158026381997e-06,1.0102382439708544e-05,0.28272115399999986
6.564115385,1.237054826808245e-05,7.917737060920458e-06,2.285729678765657e-05,8.42561650360749e-06,7.344001570636289e-06,1.0108916765575011e-05,0.28324038500000004
6.564634615,1.2370057053947582e-05,7.897942264278373e-06,2.2864743408550874e-05,8.432581911048105e-06,7.313188109594841e-06,1.0108628522682622e-05,0.28375961500000013
6.565153846,1.2364271727056954e-05,7.873350149944167e-06,2.2875768278204832e-05,8.441347416705787e-06,7.284336275889748e-06,1.0106243177630496e-05,0.2842788460000003
6.565673077,1.2354509470911844e-05,7.84825618813058e-06,2.2890025724657257e-05,8.453945591480648e-06,7.265962352974757e-06,1.0105964952303933e-05,0.2847980769999996
6.566192308,1.234164870059736e-05,7.830677850488938e-06,2.290345876123356e-05,8.468775282406523e-06,7.269259177798802e-06,1.010599278798332e-05,0.28531730799999977
6.566711538,1.2328997436761404e-05,7.826474318729998e-06,2.2912076261594137e-05,8.481681872267816e-06,7.298107883751045e-06,1.010599513469284e-05,0.28583653799999986
6.567230769,1.2322069126868768e-05,7.845144961954723e-06,2.291499184753025e-05,8.489374041917203e-06,7.342311593793308e-06,1.010548218749156e-05,0.28635576900000004
6.56775,1.232147333951782e-05,7.903008614668742e-06,2.2914132349619475e-05,8.491332407227812e-06,7.383231372861468e-06,1.0103595337144455e-05,0.2868750000000002
6.568269231,1.2323888202931348e-05,8.004723505188286e-06,2.2912481536957705e-05,8.490149215226531e-06,7.408849035869307e-06,1.0099989976884856e-05,0.2873942310000004
6.568788462,1.2327436896228924e-05,8.123711691036018e-06,2.291188097658507e-05,8.49514800985227e-06,7.415035319252505e-06,1.0092016041470094e-05,0.2879134619999997
6.569307692,1.2328862945244206e-05,8.223515799768339e-06,2.291293761279522e-05,8.520542311002322e-06,7.396857071355021e-06,1.007785651629306e-05,0.28843269199999977
6.569826923,1.2327248652600984e-05,8.28957058065275e-06,2.2915494768092385e-05,8.566979439336886e-06,7.35017197504187e-06,1.0062722860424202e-05,0.28895192299999994
6.570346154,1.2329229129476504e-05,8.326931921449689e-06,2.291838193053917e-05,8.613845233911652e-06,7.283338922142806e-06,1.0054170771191466e-05,0.2894711540000001
6.570865385,1.2343933766792446e-05,8.344350458510214e-06,2.2920598546466816e-05,8.64443417429469e-06,7.215351236230335e-06,1.0053188153397729e-05,0.2899903850000003
6.571384615,1.2378265030103989e-05,8.34891233612733e-06,2.292217752915231e-05,8.662991231867087e-06,7.157214240674313e-06,1.005669266248978e-05,0.2905096150000004
6.571903846,1.242984455687248e-05,8.347766851031587e-06,2.292379584323037e-05,8.682176890414833e-06,7.1049355857638655e-06,1.0063685262700737e-05,0.2910288459999997
6.572423077,1.2485763927018945e-05,8.346732945727995e-06,2.292646964303808e-05,8.714230216653017e-06,7.056262513503552e-06,1.007487555721008e-05,0.29154807699999985
6.572942308,1.2535159035899402e-05,8.346797360758811e-06,2.2931163140556106e-05,8.764279999374946e-06,7.0335371867849485e-06,1.0087405261367943e-05,0.292067308
6.573461538,1.2576675530467684e-05,8.346923259323075e-06,2.2937623272199037e-05,8.815838544166295e-06,7.070009617265909e-06,1.0094841246119124e-05,0.2925865380000001
6.573980769,1.2611367384016196e-05,8.347033957113403e-06,2.2943761867525936e-05,8.844693849367178e-06,7.166377132830696e-06,1.0095777597241248e-05,0.2931057690000003
6.5745,1.2635063821326864e-05,8.346871030056575e-06,2.2947338164171323e-05,8.849992921082454e-06,7.290570164666098e-06,1.0095558618505664e-05,0.2936249999999996
6.575019231,1.2644136443219729e-05,8.345946892193642e-06,2.2947759324634286e-05,8.847977276129898e-06,7.416835039999775e-06,1.009796673966576e-05,0.29414423099999976
6.575538462,1.2642701511894444e-05,8.342657243684094e-06,2.294619152267193e-05,8.845467561520131e-06,7.537027420368674e-06,1.0100994511418872e-05,0.29466346199999993
6.576057692,1.26380389785075e-05,8.337307646936094e-06,2.294516829456388e-05,8.83824023410875e-06,7.643383514895835e-06,1.0101621462985614e-05,0.295182692
6.576576923,1.2634087353884329e-05,8.333710682357808e-06,2.294693496939586e-05,8.824746428140285e-06,7.72232969722362e-06,1.0101455759289248e-05,0.2957019230000002
6.577096154,1.2631479493020989e-05,8.33379140885509e-06,2.2951887927499987e-05,8.808938150715986e-06,7.768586982881943e-06,1.0103802923844138e-05,0.2962211540000004
6.577615385,1.2630299174752949e-05,8.338005600989243e-06,2.295970296731521e-05,8.794285059004495e-06,7.793271231227187e-06,1.0105915618850774e-05,0.29674038499999966
6.578134615,1.2631721997992549e-05,8.347288717596226e-06,2.2969755847943333e-05,8.780785554640057e-06,7.811680070542373e-06,1.0102658924948065e-05,0.29725961499999976
6.578653846,1.2636950998395905e-05,8.360280916194164e-06,2.297951126989504e-05,8.763528040907058e-06,7.82969354108126e-06,1.0096112149243556e-05,0.29777884599999993
6.579173077,1.2644184329860093e-05,8.374053302527705e-06,2.298522304981584e-05,8.7339315195525e-06,7.840832845658584e-06,1.0091441259652865e-05,0.2982980770000001
6.579692308,1.2651212036825394e-05,8.387603339398686e-06,2.2986197925993977e-05,8.688568483286062e-06,7.838787551362e-06,1.008907239577964e-05,0.2988173080000003
6.580211538,1.2665198186617996e-05,8.401438205775299e-06,2.2986736419957604e-05,8.634804548003056e-06,7.827849131042242e-06,1.0086325715615449e-05,0.2993365380000004
6.580730769,1.2702642335770004e-05,8.415749843306955e-06,2.299243585448509e-05,8.58446670551297e-06,7.814211507577244e-06,1.0079529625364794e-05,0.29985576899999966
6.58125,1.2771440219173369e-05,8.427881026101189e-06,2.3007378888055104e-05,8.545528842496579e-06,7.798434989093621e-06,1.0065037642659873e-05,0.30037499999999984
6.581769231,1.2860090068310991e-05,8.431973087141992e-06,2.3037247595599056e-05,8.52138276250544e-06,7.780995858760271e-06,1.0043716972504184e-05,0.300894231
6.582288462,1.2948677300647674e-05,8.431786515703812e-06,2.3091719412227127e-05,8.510910114702118e-06,7.77220140120813e-06,1.0020898559382083e-05,0.3014134620000002
6.582807692,1.3024016420062829e-05,8.441336293720746e-06,2.3174950405945613e-05,8.511331221056466e-06,7.779690460104792e-06,1.0000868506513051e-05,0.3019326920000003
6.583326923,1.3084469167196504e-05,8.460269964058616e-06,2.3277032043121528e-05,8.521002740781582e-06,7.792085514292697e-06,9.98349447648519e-06,0.30245192300000046
6.583846154,1.3132110888501408e-05,8.473143830230275e-06,2.338139991398841e-05,8.52718806393122e-06,7.79880892897512e-06,9.96334905687374e-06,0.30297115399999974
6.584365385,1.3165812098101258e-05,8.471430457155025e-06,2.3470636473771244e-05,8.516928472975762e-06,7.80195126550358e-06,9.934172960801236e-06,0.3034903849999999
6.584884615,1.3185690011252229e-05,8.456148936747202e-06,2.352644126228284e-05,8.503267298352826e-06,7.804824217382928e-06,9.895559673929184e-06,0.304009615
6.585403846,1.3195771789469614e-05,8.430915815613863e-06,2.354196568964689e-05,8.502469998448393e-06,7.81141949306524e-06,9.85445680769102e-06,0.3045288460000002
6.585923077,1.3200224924925487e-05,8.399932662457978e-06,2.3539883459339176e-05,8.484914026575492e-06,7.823477882819753e-06,9.822291492962894e-06,0.30504807700000036
6.586442308,1.3201477334792994e-05,8.364928889070024e-06,2.3557694657036183e-05,8.370540717787083e-06,7.834998730927344e-06,9.80715651696996e-06,0.30556730799999965
6.586961538,1.3200802778252963e-05,8.323934205587354e-06,2.360853106713672e-05,8.106552226728685e-06,7.838428619285108e-06,9.805322560955612e-06,0.30608653799999974
6.587480769,1.3198047431216986e-05,8.274966874942942e-06,2.3681617064261944e-05,7.758645807531808e-06,7.832076771290609e-06,9.803851980320965e-06,0.3066057689999999
6.588,1.3193151997648633e-05,8.22309938419987e-06,2.3774460222692207e-05,7.466353954254925e-06,7.822985904668681e-06,9.792705043659763e-06,0.3071250000000001
6.588519231,1.3189626373404716e-05,8.183289590173172e-06,2.3902726916534865e-05,7.293826211600515e-06,7.822804258277573e-06,9.773050398782828e-06,0.30764423100000027
6.589038462,1.319523782660482e-05,8.169885832646911e-06,2.408466283554485e-05,7.2030787444922935e-06,7.834889572754677e-06,9.755230778509828e-06,0.30816346200000044
6.589557692,1.3216642913679954e-05,8.183437765336658e-06,2.4320046480688087e-05,7.144811309257877e-06,7.85156434744049e-06,9.747810387032356e-06,0.30868269199999965
6.590076923,1.3240681068987842e-05,8.210983298387671e-06,2.4581678462809135e-05,7.098542766996777e-06,7.86533677536231e-06,9.747685551769885e-06,0.3092019229999998
6.590596154,1.3236259344444052e-05,8.235089122393528e-06,2.4829184180800804e-05,7.06500759564204e-06,7.876044050195615e-06,9.744629908120353e-06,0.309721154
6.591115385,1.3191428679712316e-05,8.244744033309585e-06,2.503219654085004e-05,7.05028259189407e-06,7.887957146477345e-06,9.735593202557177e-06,0.3102403850000002
6.591634615,1.312332429213894e-05,8.240674041909125e-06,2.5181793913656457e-05,7.047922728806775e-06,7.90318995802683e-06,9.729256957956645e-06,0.31075961500000027
6.592153846,1.3061930265590934e-05,8.229645850625204e-06,2.528316125831128e-05,7.047956593127775e-06,7.923461679294797e-06,9.731338762728678e-06,0.31127884600000044
6.592673077,1.3035929179516323e-05,8.2189373558894e-06,2.5341934292014512e-05,7.050767490694428e-06,7.957123857943638e-06,9.72247099226343e-06,0.31179807699999973
6.593192308,1.304400344235222e-05,8.217190280053396e-06,2.5363391416291995e-05,7.056829904445392e-06,8.019697592422601e-06,9.66309867440647e-06,0.3123173079999999
6.593711538,1.3057417905001022e-05,8.232970724619244e-06,2.5364037528999947e-05,7.064664648630808e-06,8.115616219942474e-06,9.537218528580343e-06,0.312836538
6.594230769,1.3060619206639509e-05,8.265772023130357e-06,2.5373007326478385e-05,7.078817348191201e-06,8.2154946476768e-06,9.382298186685026e-06,0.3133557690000002
6.59475,1.3058784256733912e-05,8.3072370242325e-06,2.542373096093588e-05,7.110241289363909e-06,8.278490566310866e-06,9.260514594709371e-06,0.31387500000000035
6.595269231,1.3059667790130817e-05,8.356699326733413e-06,2.556434103486612e-05,7.158731749552681e-06,8.29170769974614e-06,9.204189157333796e-06,0.31439423099999964
6.595788462,1.3060977324931066e-05,8.421866103345755e-06,2.587796519966384e-05,7.198611455524924e-06,8.266541144291656e-06,9.199400093871556e-06,0.3149134619999998
6.596307692,1.3055522362431237e-05,8.502679207886314e-06,2.644602482264568e-05,7.212132567289509e-06,8.225356603930707e-06,9.218731784108969e-06,0.3154326919999999
6.596826923,1.304767952738074e-05,8.58043063470679e-06,2.7226580162994977e-05,7.211583421158879e-06,8.193901464540284e-06,9.247159775498148e-06,0.3159519230000001
6.597346154,1.3044934457497547e-05,8.629914789171685e-06,2.8011708347278304e-05,7.209537737289091e-06,8.180682095260234e-06,9.272463452819125e-06,0.31647115400000025
6.597865385,1.3045111650844306e-05,8.646014912266415e-06,2.859430150118516e-05,7.2046174942403e-06,8.178165055500543e-06,9.28357481819458e-06,0.31699038500000043
6.598384615,1.3042223129437447e-05,8.64657250683603e-06,2.892870126565571e-05,7.196333967666552e-06,8.180480092326115e-06,9.281966465312798e-06,0.31750961499999963
6.598903846,1.3032449994164948e-05,8.649232229304871e-06,2.9092657002478075e-05,7.189423145651767e-06,8.184292784215866e-06,9.275339346303389e-06,0.3180288459999998
6.599423077,1.3019283657328598e-05,8.651987330051062e-06,2.917189514982092e-05,7.187117330319571e-06,8.186698620672464e-06,9.269282095692651e-06,0.318548077
6.599942308,1.3011218494175082e-05,8.643174187968557e-06,2.9211708974058567e-05,7.188505904148183e-06,8.187359089773758e-06,9.264164056319566e-06,0.31906730800000016
6.600461538,1.3011613428077083e-05,8.621317019710353e-06,2.92272244636557e-05,7.191077944212717e-06,8.189133849283903e-06,9.256603575446592e-06,0.31958653800000025
6.600980769,1.3016627796093404e-05,8.592277911735767e-06,2.922544155690713e-05,7.192439899882726e-06,8.196261620590603e-06,9.253284544336462e-06,0.32010576900000043
6.6015,1.3020203148968316e-05,8.563744860054055e-06,2.921714456650845e-05,7.1919993537048055e-06,8.21298630382896e-06,9.267052654192471e-06,0.3206249999999997
6.602019231,1.301858923884574e-05,8.543147979376e-06,2.9213124827254425e-05,7.193265696352772e-06,8.244520717688323e-06,9.294406940227412e-06,0.3211442309999999
6.602538462,1.3014346744349389e-05,8.53692987925056e-06,2.9217801849666335e-05,7.199501770885684e-06,8.293182726889018e-06,9.319395863428832e-06,0.32166346200000007
6.603057692,1.301407479163655e-05,8.546032170667283e-06,2.9231519584256088e-05,7.20931056974052e-06,8.348719893542072e-06,9.335224512790423e-06,0.32218269200000016
6.603576923,1.3018999156309255e-05,8.558269452867025e-06,2.925374207992289e-05,7.219824305484833e-06,8.394109584629192e-06,9.346254490357527e-06,0.32270192300000033
6.604096154,1.3024347045658164e-05,8.563478487408206e-06,2.9282377806533808e-05,7.230703179804431e-06,8.425024829601018e-06,9.356528166600626e-06,0.3232211539999996
6.604615385,1.3025058852008776e-05,8.562553878923804e-06,2.9314824879806016e-05,7.243604375816863e-06,8.450626497465838e-06,9.365352810634878e-06,0.3237403849999998
6.605134615,1.3018620173306608e-05,8.557038878217378e-06,2.9350297078598797e-05,7.25499999023045e-06,8.480430878344465e-06,9.369038320633369e-06,0.3242596149999999
6.605653846,1.3010665748358e-05,8.550015854005315e-06,2.9390054919110087e-05,7.25738632666746e-06,8.512363449656619e-06,9.36407193388919e-06,0.32477884600000007
6.606173077,1.3013996162943184e-05,8.546590543269924e-06,2.9435494616620172e-05,7.250752736229249e-06,8.53376201298005e-06,9.3515680070271e-06,0.32529807700000024
6.606692308,1.303644088961396e-05,8.546336435257584e-06,2.948521816629774e-05,7.239756801506101e-06,8.53982022862168e-06,9.334309984872078e-06,0.3258173080000004
6.607211538,1.3075374685590537e-05,8.54627596719165e-06,2.9535405639802697e-05,7.225350433136309e-06,8.537475538344176e-06,9.306046069713737e-06,0.3263365379999996
6.607730769,1.31252520729924e-05,8.547070694244444e-06,2.958311792836944e-05,7.207378550766771e-06,8.530834108398641e-06,9.251523145816287e-06,0.3268557689999998
6.60825,1.3187327776945168e-05,8.549092148169385e-06,2.9626781318372e-05,7.188103222279619e-06,8.514260548013496e-06,9.159370064920553e-06,0.32737499999999997
6.608769231,1.32698451473523e-05,8.551076029281263e-06,2.9664749183823397e-05,7.17729450143602e-06,8.480822437227146e-06,9.03031927174466e-06,0.32789423100000015
6.609288462,1.3376844322309476e-05,8.552111945539278e-06,2.9695906687502373e-05,7.194567755937194e-06,8.435346849095082e-06,8.881271638687177e-06,0.3284134620000003
6.609807692,1.3501099956829828e-05,8.550938773708217e-06,2.972124572521685e-05,7.247320372590047e-06,8.391691981899285e-06,8.750748845443404e-06,0.3289326920000004
6.610326923,1.3629110461874002e-05,8.548590514362743e-06,2.974344641405929e-05,7.311269880915938e-06,8.358119988409994e-06,8.684314850868572e-06,0.3294519229999997
6.610846154,1.3747405479037756e-05,8.54792078545112e-06,2.976466610879703e-05,7.354408850866175e-06,8.334094275142321e-06,8.694135143727614e-06,0.3299711539999999
6.611365385,1.3843059431045124e-05,8.548893605274404e-06,2.978478495232221e-05,7.36849536601431e-06,8.318077050115493e-06,8.733948722187329e-06,0.33049038500000005
6.611884615,1.3905275516794006e-05,8.548733173826062e-06,2.980057512105201e-05,7.368641804218043e-06,8.309655718661321e-06,8.698149038829286e-06,0.33100961500000015
6.612403846,1.3934049696812686e-05,8.54695398774953e-06,2.9806235517240505e-05,7.376051900817391e-06,8.3068686298959e-06,8.4302601227495e-06,0.3315288460000003
6.612923077,1.3942248123978012e-05,8.551472297230842e-06,2.979832853153585e-05,7.403400497370698e-06,8.307311310745862e-06,7.80476542632171e-06,0.3320480769999996
6.613442308,1.3942500047471197e-05,8.57061961920982e-06,2.9781615759196963e-05,7.449020046374418e-06,8.308637666085722e-06,6.909997805002629e-06,0.3325673079999998
6.613961538,1.3940216821331807e-05,8.59730893130752e-06,2.976585170147656e-05,7.49882105830296e-06,8.305904686232635e-06,6.131041948543402e-06,0.3330865379999999
6.614480769,1.3938091313009237e-05,8.617957943012224e-06,2.9757030738186868e-05,7.533005039854269e-06,8.29319591076773e-06,5.818043266930947e-06,0.33360576900000005
6.615,1.3935418579361576e-05,8.628516889662377e-06,2.9756496761534076e-05,7.540532274176026e-06,8.274196951895659e-06,5.836468692048966e-06,0.3341250000000002
6.615519231,1.3928814144734552e-05,8.632073436925118e-06,2.9767561557798077e-05,7.531494941491956e-06,8.265239993568714e-06,5.856660350760546e-06,0.3346442310000004
6.616038462,1.391973616886034e-05,8.632439756937741e-06,2.979891742292775e-05,7.523696534945868e-06,8.275109549805477e-06,5.792254537540527e-06,0.3351634619999997
6.616557692,1.3913255807322076e-05,8.632469104266997e-06,2.985562840770012e-05,7.521767951678436e-06,8.289641434998347e-06,5.708541750988913e-06,0.3356826919999998
6.617076923,1.3909288184961302e-05,8.633631780567215e-06,2.9921929499351057e-05,7.521686922578557e-06,8.291858457092287e-06,5.6370567346937214e-06,0.33620192299999996
6.617596154,1.3906124364289234e-05,8.63581968666719e-06,2.9968790478024327e-05,7.521496106835996e-06,8.282955356638977e-06,5.56569859694794e-06,0.33672115400000013
6.618115385,1.3909389846484264e-05,8.63833162713273e-06,2.998619681264632e-05,7.520834475210139e-06,8.271117146819864e-06,5.487540085637295e-06,0.3372403850000003
6.618634615,1.3925932800442312e-05,8.640552239684803e-06,2.9986363774797788e-05,7.519423569787542e-06,8.258990439237748e-06,5.416569292324037e-06,0.3377596150000004
6.619153846,1.3953292491219968e-05,8.641909630375413e-06,2.9980338030798656e-05,7.519768215751318e-06,8.247296943952118e-06,5.366530936900409e-06,0.3382788459999997
6.619673077,1.3982771577800244e-05,8.642337286895965e-06,2.997050091255666e-05,7.53746496995671e-06,8.240384963109923e-06,5.334620503420156e-06,0.33879807699999986
6.620192308,1.401044922096924e-05,8.642287079840637e-06,2.995780314147276e-05,7.612263101476034e-06,8.243037428384707e-06,5.317974742852274e-06,0.33931730800000004
6.620711538,1.4039600884690963e-05,8.64181062908093e-06,2.9947145273576632e-05,7.77674904415555e-06,8.253246002320638e-06,5.325333883937901e-06,0.33983653800000013
6.621230769,1.4074202468804004e-05,8.639980032535607e-06,2.9943054661404724e-05,7.991907079663152e-06,8.263139150870245e-06,5.370411993529197e-06,0.3403557690000003
6.62175,1.4111867097372352e-05,8.636247019109725e-06,2.994392884924019e-05,8.170570247944908e-06,8.261518286847363e-06,5.44528484419516e-06,0.3408749999999996
6.622269231,1.41457102074328e-05,8.632330919619631e-06,2.994487591260875e-05,8.27190954244588e-06,8.240292713269187e-06,5.5120494907923134e-06,0.34139423099999977
6.622788462,1.4174241518713203e-05,8.630220606927717e-06,2.9941349522002687e-05,8.316308309552706e-06,8.208840211791125e-06,5.551450516481592e-06,0.34191346199999995
6.623307692,1.4202953043878837e-05,8.627647398706162e-06,2.993256526484346e-05,8.334982269726927e-06,8.18993197162612e-06,5.57363988505382e-06,0.34243269200000004
6.623826923,1.4235376196106191e-05,8.618637669691792e-06,2.992376484270945e-05,8.345030092454547e-06,8.189992162503768e-06,5.581397624638152e-06,0.3429519230000002
6.624346154,1.4265320059318724e-05,8.603307718318422e-06,2.992014006402365e-05,8.351589719551691e-06,8.1923031297763e-06,5.575315305868591e-06,0.3434711540000004
6.624865385,1.4283402768857768e-05,8.590186636139575e-06,2.992093942324561e-05,8.354375134426523e-06,8.18832051217346e-06,5.568831459715952e-06,0.3439903849999997
6.625384615,1.428636419660004e-05,8.583815972169585e-06,2.9922884999758145e-05,8.3532388188094e-06,8.18426984173965e-06,5.568748294813273e-06,0.34450961499999977
6.625903846,1.4275835756819251e-05,8.581751543892048e-06,2.9924890357718857e-05,8.34970768886578e-06,8.179441137173356e-06,5.568559936038189e-06,0.34502884599999994
6.626423077,1.425609901686156e-05,8.58140770849748e-06,2.9923512244296867e-05,8.345365306556388e-06,8.164382644868705e-06,5.563950070777122e-06,0.3455480770000001
6.626942308,1.4231663998673224e-05,8.581997103504807e-06,2.990174657438427e-05,8.340792421427617e-06,8.12728610957906e-06,5.555259870615509e-06,0.3460673080000003
6.627461538,1.4205316225377911e-05,8.583311530621985e-06,2.9833799773822263e-05,8.336450333304824e-06,8.063408014196938e-06,5.541840599716881e-06,0.3465865380000004
6.627980769,1.4175858223543002e-05,8.58591396514206e-06,2.9711862024967125e-05,8.335298128355875e-06,7.986521845701054e-06,5.523575589935368e-06,0.3471057689999997
6.6285,1.4141510342439888e-05,8.592600624335481e-06,2.955748299429893e-05,8.345267626512095e-06,7.91945014999881e-06,5.503047835779089e-06,0.34762499999999985
6.629019231,1.4109613878411996e-05,8.605708616589075e-06,2.940147960439576e-05,8.375991252484929e-06,7.875787012175195e-06,5.483287970112704e-06,0.348144231
6.629538462,1.4090160474867651e-05,8.620980932691256e-06,2.9264308350153827e-05,8.425234796849884e-06,7.85513187969105e-06,5.4669527831795285e-06,0.3486634620000002
6.630057692,1.408389117569288e-05,8.630783795528044e-06,2.9154895418013e-05,8.476069149112571e-06,7.848779605800662e-06,5.46130035618835e-06,0.3491826920000003
6.630576923,1.4086312609290444e-05,8.633200612212155e-06,2.907593539752602e-05,8.517452074827563e-06,7.842905052773037e-06,5.481802345283754e-06,0.3497019229999996
6.631096154,1.4095546972810945e-05,8.632225708718274e-06,2.902630568319988e-05,8.552394740374752e-06,7.821166193867301e-06,5.535984892860136e-06,0.35022115399999976
6.631615385,1.4115450786451273e-05,8.631268532480732e-06,2.9001295694486036e-05,8.585876359083317e-06,7.777292059209321e-06,5.595589480186985e-06,0.35074038499999993
6.632134615,1.4153539193172084e-05,8.62839542675726e-06,2.899324343387186e-05,8.616439571730756e-06,7.725866767501453e-06,5.620087207187219e-06,0.351259615
6.632653846,1.4209053285769191e-05,8.621029921579001e-06,2.899292322190916e-05,8.639199261716703e-06,7.690118413064796e-06,5.619929950708475e-06,0.3517788460000002
6.633173077,1.4266109913623156e-05,8.610172540716097e-06,2.8992115900242623e-05,8.654239234796246e-06,7.68124733280699e-06,5.636457493231752e-06,0.3522980770000004
6.633692308,1.430916610123867e-05,8.594980794169597e-06,2.8986278321185323e-05,8.66680006184482e-06,7.692389554502363e-06,5.666613858534344e-06,0.35281730799999966
6.634211538,1.433762509011132e-05,8.57940574287015e-06,2.8971383838686324e-05,8.67866437147066e-06,7.710546476615508e-06,5.681700509988732e-06,0.35333653799999976
6.634730769,1.4359243886842627e-05,8.573971650094624e-06,2.893727073083776e-05,8.681837469284755e-06,7.729865007020824e-06,5.681485669525512e-06,0.35385576899999993
6.63525,1.437916069521752e-05,8.577788071453321e-06,2.8871260736158225e-05,8.670372986537337e-06,7.750016662615581e-06,5.677981765749464e-06,0.3543750000000001
6.635769231,1.4396590187733184e-05,8.581367807687864e-06,2.876957619856333e-05,8.652595193559223e-06,7.776241874682802e-06,5.673863883426267e-06,0.3548942310000003
6.636288462,1.4408179415910742e-05,8.58124435353209e-06,2.863913267771181e-05,8.63817959944059e-06,7.813113417393276e-06,5.671949686889695e-06,0.35541346200000046
6.636807692,1.4413690163570392e-05,8.578731717405874e-06,2.8492515302328458e-05,8.6281667947611e-06,7.849955081367328e-06,5.674326315539644e-06,0.35593269199999966
6.637326923,1.441589211056763e-05,8.57636309269417e-06,2.834942346210924e-05,8.622667629704665e-06,7.871700439475638e-06,5.678084744541859e-06,0.35645192299999984
6.637846154,1.4416655611397936e-05,8.576748754224801e-06,2.8236221434799494e-05,8.62078096369738e-06,7.877499067626803e-06,5.6801220448093e-06,0.356971154
6.638365385,1.4416332271166038e-05,8.579335235594767e-06,2.816957129478759e-05,8.6179411178019e-06,7.87660687371148e-06,5.678447413773306e-06,0.3574903850000002
6.638884615,1.4416573063211688e-05,8.581144591300043e-06,2.814147410845478e-05,8.613890651963945e-06,7.875989930018155e-06,5.673433893871638e-06,0.3580096150000003
6.639403846,1.4421689928509364e-05,8.580833471248111e-06,2.8131583855820613e-05,8.612304907241431e-06,7.876902557175214e-06,5.670232288526185e-06,0.35852884600000046
6.639923077,1.4434413402840856e-05,8.579288619530873e-06,2.8127350396327717e-05,8.612258737961544e-06,7.878490609749615e-06,5.673399285592914e-06,0.35904807699999974
6.640442308,1.4452991619955465e-05,8.578241347312654e-06,2.8126968919660777e-05,8.60908157786717e-06,7.880369786169488e-06,5.678835695957147e-06,0.3595673079999999
6.640961538,1.4474305383024807e-05,8.578617576224802e-06,2.8134465889796653e-05,8.600108641911692e-06,7.882315459637259e-06,5.67874119709276e-06,0.360086538
6.641480769,1.4497480299534272e-05,8.580129926662996e-06,2.814986783769661e-05,8.587838700467397e-06,7.884048155061342e-06,5.672748850981664e-06,0.3606057690000002
6.642,1.4524290516091508e-05,8.581437930506105e-06,2.816404450934341e-05,8.577999958271706e-06,7.885853207822385e-06,5.665852517766353e-06,0.36112500000000036
6.642519231,1.4556617028219022e-05,8.579891521554367e-06,2.8170508108823445e-05,8.57263581674182e-06,7.889470024419454e-06,5.661666755119212e-06,0.36164423099999965
6.643038462,1.459308704822973e-05,8.577277182116253e-06,2.817171673335814e-05,8.569291384674278e-06,7.89816551804167e-06,5.661175590022159e-06,0.3621634619999998
6.643557692,1.462697822434808e-05,8.578294487502758e-06,2.8171623108350424e-05,8.565231147289164e-06,7.91369571811875e-06,5.660760581203018e-06,0.3626826919999999
6.644076923,1.4649487456036332e-05,8.580928155666452e-06,2.817215024043319e-05,8.559372817110338e-06,7.933452974475695e-06,5.655028791109124e-06,0.3632019230000001
6.644596154,1.4657651735899246e-05,8.574669990846485e-06,2.817543239352902e-05,8.553914582418843e-06,7.95449918920437e-06,5.643410358236562e-06,0.36372115400000027
6.645115385,1.4655560775858955e-05,8.540783331731026e-06,2.8186924929089872e-05,8.551582051058372e-06,7.976680733850253e-06,5.629917504125143e-06,0.36424038500000044
6.645634615,1.4648031853605765e-05,8.476579009752324e-06,2.821395209470228e-05,8.551759491739222e-06,7.996444141452907e-06,5.617336558232659e-06,0.36475961499999965
6.646153846,1.4639228183324376e-05,8.413058006509493e-06,2.825664547085637e-05,8.552943168150346e-06,8.003839336385431e-06,5.607439678835059e-06,0.3652788459999998
6.646673077,1.4633288738862008e-05,8.376860270396302e-06,2.8304631246456648e-05,8.555836161013966e-06,7.991950268714701e-06,5.601248532809471e-06,0.365798077
6.647192308,1.4629994319915576e-05,8.36616873253139e-06,2.834554616475075e-05,8.561133385046421e-06,7.967066482945483e-06,5.593938390536672e-06,0.3663173080000002
6.647711538,1.4626105312643648e-05,8.371956346235583e-06,2.8373369947017415e-05,8.567208563902246e-06,7.943197102850148e-06,5.582229170426695e-06,0.36683653800000027
6.648230769,1.4621045597084154e-05,8.387016454183684e-06,2.838996374736513e-05,8.570973639680121e-06,7.926920281683902e-06,5.572147367886099e-06,0.36735576900000044
6.64875,1.4617686938725638e-05,8.402652107136736e-06,2.840091984595164e-05,8.566902903381133e-06,7.915518903872329e-06,5.568111993642181e-06,0.36787499999999973
6.649269231,1.4622611733148385e-05,8.415702774118781e-06,2.8410273984574853e-05,8.553319631882942e-06,7.905518236457494e-06,5.565572350891428e-06,0.3683942309999999
6.649788462,1.4639294888617695e-05,8.429597851454893e-06,2.841898607351111e-05,8.539751866210686e-06,7.89664993974626e-06,5.561027732473723e-06,0.3689134620000001
6.650307692,1.4656862918445648e-05,8.448653412815348e-06,2.842500532636076e-05,8.533354737500709e-06,7.889796328474931e-06,5.55703409953308e-06,0.3694326920000002
6.650826923,1.4654101123898996e-05,8.472877163107987e-06,2.8424025911927844e-05,8.531158214563209e-06,7.884238266135879e-06,5.556897569838931e-06,0.36995192300000035
6.651346154,1.4616769889223662e-05,8.496800260385961e-06,2.8413218046341152e-05,8.53052538628528e-06,7.878447358503863e-06,5.562715567284961e-06,0.37047115399999964
6.651865385,1.4552141072734992e-05,8.515414767894957e-06,2.839527677134213e-05,8.530684252786282e-06,7.871075248148871e-06,5.573861606563497e-06,0.3709903849999998
6.652384615,1.448313383605833e-05,8.526048826609915e-06,2.8376119582648855e-05,8.530738465889629e-06,7.861754679400462e-06,5.587168747687167e-06,0.3715096149999999
6.652903846,1.4424781457527512e-05,8.526189889042811e-06,2.8359136070493517e-05,8.530743952304804e-06,7.855367416519022e-06,5.5977337070133045e-06,0.3720288460000001
6.653423077,1.4375263563198292e-05,8.517067647018477e-06,2.834394542014305e-05,8.530543818211267e-06,7.85611430588904e-06,5.596643132204925e-06,0.37254807700000026
6.653942308,1.4328066039324402e-05,8.504082531993113e-06,2.8327711242745097e-05,8.528673751134076e-06,7.858528489547192e-06,5.580438359147805e-06,0.37306730800000043
6.654461538,1.4284786044186632e-05,8.487303463014288e-06,2.8307337875273738e-05,8.522889742581016e-06,7.85730623106185e-06,5.561972332741129e-06,0.37358653799999963
6.654980769,1.425487529233911e-05,8.461451970323695e-06,2.8282655837868925e-05,8.514194584589117e-06,7.855454487589096e-06,5.55657094167167e-06,0.3741057689999998
6.6555,1.424131735105512e-05,8.427772779635033e-06,2.8255447027145264e-05,8.507414632359505e-06,7.858151067435979e-06,5.563601149265961e-06,0.374625
6.656019231,1.4237323281726682e-05,8.397059408844002e-06,2.822517045054686e-05,8.505785344313572e-06,7.863356665285006e-06,5.571866493829022e-06,0.37514423100000016
6.656538462,1.4238775537233264e-05,8.37932547252838e-06,2.8187018030247217e-05,8.509171748620804e-06,7.86423410754127e-06,5.574926128645697e-06,0.37566346200000034
6.657057692,1.4247223946701552e-05,8.374925610537937e-06,2.8133075557109485e-05,8.515738259543117e-06,7.863340586459787e-06,5.5731668055696754e-06,0.37618269200000043
