Time,Rectus Femoris,Vastus Medialis,Vastus Lateralis,Bicep Femoris,Tibialis,Gastrocnemius Medialis,Trimmed Time
6.132634615,7.555942441120808e-06,6.822013384179743e-06,2.979012845687718e-06,3.228149773269342e-06,4.4686520725903456e-05,2.4694382659565355e-05,0.00025961500000004634
6.133153846,7.556695050045404e-06,6.821340481937221e-06,2.9876574699922885e-06,3.227653545352279e-06,4.455738090266162e-05,2.4656395036098098e-05,0.0007788460000002217
6.133673077,7.572072135532427e-06,6.821474056026393e-06,2.9917911920214195e-06,3.2357870301568355e-06,4.428325548401897e-05,2.462886158562918e-05,0.0012980770000003972
6.134192308,7.611842513232739e-06,6.821626770351821e-06,2.9916544981833246e-06,3.249797145286764e-06,4.384739514911152e-05,2.4629284579056823e-05,0.0018173080000005726
6.134711538,7.656969895117708e-06,6.821676156968441e-06,2.992400743115952e-06,3.252119656671755e-06,4.335111086162073e-05,2.464392826860222e-05,0.0023365380000006652
6.135230769,7.683840251934414e-06,6.822483626731834e-06,2.9888201482531077e-06,3.2427508214151134e-06,4.290930629730186e-05,2.4655391564704584e-05,0.0028557689999999525
6.13575,7.693291053711679e-06,6.823872951937398e-06,2.976602894276204e-06,3.2371294464111165e-06,4.257259935912295e-05,2.465613058061514e-05,0.003375000000000128
6.136269231,7.695887005586462e-06,6.827577904306675e-06,2.954142143881422e-06,3.235161625761828e-06,4.239138228372372e-05,2.4659344067893065e-05,0.0038942310000003033
6.136788462,7.696134422844167e-06,6.839431007457222e-06,2.9305957505538037e-06,3.244793954358641e-06,4.239415963002134e-05,2.4679422618403383e-05,0.004413462000000479
6.137307692,7.69540735003775e-06,6.858667223369362e-06,2.9237049355036368e-06,3.2612836460532565e-06,4.234269954743695e-05,2.4700956876804003e-05,0.004932692000000571
6.137826923,7.69508225431232e-06,6.877178168115836e-06,2.9305896128410384e-06,3.2625785888399485e-06,4.182317903896489e-05,2.4706953245432557e-05,0.005451923000000747
6.138346154,7.695001820183915e-06,6.889463703506175e-06,2.9349480260706984e-06,3.269154836632995e-06,4.096722435864699e-05,2.470578026111747e-05,0.005971154000000034
6.138865385,7.69388751325445e-06,6.892004231610052e-06,2.927990552746384e-06,3.2967689265588724e-06,4.04362675146923e-05,2.4707020396073782e-05,0.0064903850000002095
6.139384615,7.693850213262102e-06,6.889081839506287e-06,2.9149514572443e-06,3.3196475621608205e-06,4.036775987755085e-05,2.4710067457159564e-05,0.007009615000000302
6.139903846,7.695903617591688e-06,6.888684849878928e-06,2.909206467923857e-06,3.324512632120037e-06,4.033632994767439e-05,2.4714076555535875e-05,0.0075288460000004775
6.140423077,7.692861897907234e-06,6.887159808524222e-06,2.909029000862022e-06,3.31516171719718e-06,4.0185661641594766e-05,2.4718213112381505e-05,0.008048077000000653
6.140942308,7.681134042537412e-06,6.880427128424701e-06,2.8996557917624285e-06,3.3026495658904557e-06,4.004240423295064e-05,2.471882918723425e-05,0.00856730799999994
6.141461538,7.669763830945228e-06,6.874595149678226e-06,2.875664973328108e-06,3.2984940075815197e-06,3.996361531011493e-05,2.4719322107754008e-05,0.009086538000000033
6.141980769,7.66522788767214e-06,6.873963760290911e-06,2.846361021233986e-06,3.2988062013424614e-06,3.992351393876245e-05,2.4729532078560668e-05,0.009605769000000208
6.1425,7.664717901249103e-06,6.877213174036418e-06,2.826321720724903e-06,3.299057657506778e-06,3.989686323612254e-05,2.47423523729001e-05,0.010125000000000384
6.143019231,7.664975620274867e-06,6.883893842213801e-06,2.822085091151745e-06,3.3001829228196758e-06,3.9872424135991296e-05,2.4747268419839617e-05,0.010644231000000559
6.143538462,7.663928596219263e-06,6.895607397046265e-06,2.8246721474035084e-06,3.297460573265489e-06,3.984708821434206e-05,2.474822231840634e-05,0.011163462000000735
6.144057692,7.657588635468594e-06,6.916132427936555e-06,2.824642757188031e-06,3.294066900780553e-06,3.982657408447504e-05,2.4746599147674955e-05,0.011682691999999939
6.144576923,7.638369837034513e-06,6.948109938523323e-06,2.8230781565255154e-06,3.293958391646587e-06,3.981958774554973e-05,2.47444549853964e-05,0.012201923000000114
6.145096154,7.606311512320813e-06,6.985969031852205e-06,2.82291018784888e-06,3.284034309398684e-06,3.982484760823478e-05,2.474725236033528e-05,0.01272115400000029
6.145615385,7.581095146117018e-06,7.018692424105886e-06,2.832677018737819e-06,3.266314649186087e-06,3.983128323360291e-05,2.475130021915581e-05,0.013240385000000465
6.146134615,7.577942213229622e-06,7.038326991399618e-06,2.8514054600584697e-06,3.258433310165384e-06,3.9822566259506366e-05,2.474740750492774e-05,0.013759615000000558
6.146653846,7.580387383857425e-06,7.045116742765396e-06,2.8601569907728547e-06,3.2584503494762955e-06,3.977529395470605e-05,2.473992531966058e-05,0.014278846000000733
6.147173077,7.566302204374714e-06,7.046187307877079e-06,2.851457636747665e-06,3.260827649315542e-06,3.967450276491863e-05,2.4740866106478407e-05,0.01479807700000002
6.147692308,7.541102988108578e-06,7.045682263489536e-06,2.8379375809380152e-06,3.262853503124435e-06,3.9550151065600085e-05,2.474474056855292e-05,0.015317308000000196
6.148211538,7.522409949060391e-06,7.04316448790698e-06,2.8362077705691342e-06,3.2543626539738766e-06,3.946452180463575e-05,2.474398486848662e-05,0.01583653800000029
6.148730769,7.514372823563741e-06,7.037953669709318e-06,2.846160258098136e-06,3.2444293693498936e-06,3.943904602294808e-05,2.4743411542254736e-05,0.016355769000000464
6.14925,7.51130665323504e-06,7.029546776113251e-06,2.851291593183141e-06,3.242738050293649e-06,3.943906666538275e-05,2.4745611140525472e-05,0.01687500000000064
6.149769231,7.509492779489078e-06,7.022404096768345e-06,2.84550931085514e-06,3.240055862886343e-06,3.942883344893703e-05,2.4750299965476315e-05,0.017394230999999927
6.150288462,7.5099709701158915e-06,7.023605777620985e-06,2.840710076458735e-06,3.242386886672669e-06,3.939790659300044e-05,2.4759836596864427e-05,0.017913462000000102
6.150807692,7.516290622437702e-06,7.040749558746278e-06,2.8439851049919933e-06,3.250209058996841e-06,3.935557791864472e-05,2.4773560367782455e-05,0.018432692000000195
6.151326923,7.524817653608049e-06,7.074652546800624e-06,2.843871054378028e-06,3.251655124077157e-06,3.932063314532288e-05,2.478352762699042e-05,0.01895192300000037
6.151846154,7.528573163994344e-06,7.108709171595116e-06,2.829909244014493e-06,3.2508834266730213e-06,3.930695974985667e-05,2.47870465356751e-05,0.019471154000000546
6.152365385,7.52977652456221e-06,7.12909680321093e-06,2.81118001051634e-06,3.2508424378684302e-06,3.931457445792016e-05,2.4789575410723764e-05,0.01999038500000072
6.152884615,7.531500722992572e-06,7.1379037498643664e-06,2.8011946171215207e-06,3.251295378992964e-06,3.932726851228325e-05,2.480384646671884e-05,0.020509614999999926
6.153403846,7.531768127043985e-06,7.140328602535888e-06,2.8016974842005274e-06,3.250145696931716e-06,3.933111085371848e-05,2.4850923388237845e-05,0.0210288460000001
6.153923077,7.53028245067498e-06,7.139050203333075e-06,2.810292922920808e-06,3.2440946514725133e-06,3.933111995331912e-05,2.4904724640547333e-05,0.021548077000000276
6.154442308,7.531303749671304e-06,7.134629307296612e-06,2.8291311469984827e-06,3.2656013500738208e-06,3.933289095463144e-05,2.4913629644953736e-05,0.022067308000000452
6.154961538,7.539833368510917e-06,7.128463164428141e-06,2.862638510631581e-06,3.341531794014171e-06,3.932650409718965e-05,2.493197415580805e-05,0.022586538000000544
6.155480769,7.553773125146351e-06,7.123912329802318e-06,2.9036591142942097e-06,3.427632264123801e-06,3.929188932923925e-05,2.502891232114615e-05,0.02310576900000072
6.156,7.566610346369129e-06,7.123528203153103e-06,2.9315625131728844e-06,3.4757910783089056e-06,3.921527030577585e-05,2.5130122204255377e-05,0.023625000000000007
6.156519231,7.577040867654627e-06,7.129981886028046e-06,2.9394118284641557e-06,3.490611617137903e-06,3.9111667984342494e-05,2.515973571814547e-05,0.024144231000000183
6.157038462,7.587668122407629e-06,7.146532406658646e-06,2.939489818649163e-06,3.497047346519496e-06,3.901478177069572e-05,2.5141998970862183e-05,0.024663462000000358
6.157557692,7.599157779292889e-06,7.170759211833056e-06,2.940870731500717e-06,3.5132910776949003e-06,3.8938549573467096e-05,2.5121951170251224e-05,0.02518269200000045
6.158076923,7.608341571570293e-06,7.1904858598349454e-06,2.948167941157975e-06,3.5394791918251187e-06,3.888135792051469e-05,2.5123459121551456e-05,0.025701923000000626
6.158596154,7.612720749420256e-06,7.196944744851241e-06,2.959517902616447e-06,3.565049819950874e-06,3.884851266757027e-05,2.512319594704081e-05,0.026221153999999913
6.159115385,7.613931823943722e-06,7.194041409894679e-06,2.9617700765078497e-06,3.586944220157004e-06,3.883782494344298e-05,2.5102244128788228e-05,0.02674038500000009
6.159634615,7.614055481969632e-06,7.188409461599939e-06,2.951318874517095e-06,3.59845088987643e-06,3.8833734254719145e-05,2.508932111529176e-05,0.02725961500000018
6.160153846,7.614252124191411e-06,7.184054788414724e-06,2.94015431045144e-06,3.592951112913668e-06,3.882507788826569e-05,2.5111427529634136e-05,0.027778846000000357
6.160673077,7.6159216746933234e-06,7.18346147421706e-06,2.9367470970878994e-06,3.5831216205557283e-06,3.881395550115916e-05,2.5195562767014544e-05,0.028298077000000532
6.161192308,7.617067267168601e-06,7.185876065049986e-06,2.938482777757376e-06,3.5814870481120954e-06,3.881371282909631e-05,2.5324619280898263e-05,0.028817308000000708
6.161711538,7.612317745924808e-06,7.188708557569281e-06,2.9393145507375514e-06,3.583379257921013e-06,3.879884536075099e-05,2.54355829752907e-05,0.029336537999999912
6.162230769,7.601169123402472e-06,7.1903050734163934e-06,2.937881215390187e-06,3.5855766476941512e-06,3.861305302617988e-05,2.551621986222996e-05,0.029855769000000087
6.16275,7.590407507056014e-06,7.190272505269916e-06,2.936265018794234e-06,3.593547140429199e-06,3.808498751024625e-05,2.558563277518709e-05,0.030375000000000263
6.163269231,7.588891828502176e-06,7.187702004018912e-06,2.937206287022296e-06,3.618624150889633e-06,3.732342341441842e-05,2.562253736180846e-05,0.03089423100000044
6.163788462,7.5977006664128835e-06,7.181375194767536e-06,2.9444279552189974e-06,3.676477457147265e-06,3.665511019592225e-05,2.5621952390969587e-05,0.031413462000000614
6.164307692,7.607590900212192e-06,7.173696503139775e-06,2.95381746315974e-06,3.750626901880173e-06,3.6265509349724025e-05,2.5688131863008687e-05,0.031932692000000706
6.164826923,7.613482919335705e-06,7.168308779209564e-06,2.9540218937818022e-06,3.796783377878631e-06,3.612407684394842e-05,2.5856512804532017e-05,0.032451922999999994
6.165346154,7.615599836982165e-06,7.165091776740024e-06,2.943368924646853e-06,3.8107529735664105e-06,3.6117964183616384e-05,2.6004580111175104e-05,0.03297115400000017
6.165865385,7.611593476879349e-06,7.162326392943621e-06,2.9326338115035226e-06,3.8202208683991865e-06,3.604378507889779e-05,2.607172210164717e-05,0.033490385000000344
6.166384615,7.605796387063737e-06,7.159196997566795e-06,2.9297542662449177e-06,3.840939192850654e-06,3.5648849088899303e-05,2.609351483291413e-05,0.03400961500000044
6.166903846,7.603954503036474e-06,7.157019840372452e-06,2.9322125803326823e-06,3.8850979681025136e-06,3.5000735293977286e-05,2.6098336295463468e-05,0.03452884600000061
6.167423077,7.603460318349432e-06,7.15660429880492e-06,2.93816962050582e-06,3.934152479093451e-06,3.45526464209547e-05,2.6098960971298748e-05,0.0350480769999999
6.167942308,7.599589554883145e-06,7.152348033701272e-06,2.9519001234127577e-06,3.951843274926496e-06,3.446595949489996e-05,2.6118268887368632e-05,0.035567308000000075
6.168461538,7.585718001887533e-06,7.139246096744138e-06,2.970477284420211e-06,3.9524306099050175e-06,3.4478087293149174e-05,2.614631521047837e-05,0.03608653800000017
6.168980769,7.558687159237637e-06,7.121606386563475e-06,2.9834238422782986e-06,3.9514332880953e-06,3.457464437702686e-05,2.614675120098068e-05,0.03660576900000034
6.1695,7.52746711671388e-06,7.105283278915154e-06,2.9880761782631177e-06,3.946525942862797e-06,3.4931962545572816e-05,2.6184120548023663e-05,0.03712500000000052
6.170019231,7.504459845169675e-06,7.089850811256351e-06,2.9892921291706306e-06,3.951050881954562e-06,3.540508444570113e-05,2.630321057614433e-05,0.037644231000000694
6.170538462,7.492900873689667e-06,7.073124667624471e-06,2.9895087394858043e-06,3.951925294952065e-06,3.5692279206483674e-05,2.6402594571776225e-05,0.03816346199999998
6.171057692,7.487888875956792e-06,7.057799217515307e-06,2.9883721641512973e-06,3.942817571787016e-06,3.573336993012747e-05,2.643046147604225e-05,0.038682692000000074
6.171576923,7.483090531382983e-06,7.052741656449735e-06,2.987241264635132e-06,3.940786564139962e-06,3.577068416552776e-05,2.6431475547939014e-05,0.03920192300000025
6.172096154,7.471649104446488e-06,7.065569943401252e-06,2.987874593459172e-06,3.941195506652784e-06,3.619255845301344e-05,2.643085217725889e-05,0.039721154000000425
6.172615385,7.451369246245927e-06,7.088092129329681e-06,2.989868066850836e-06,3.941312870373285e-06,3.720510703995968e-05,2.6430293670074714e-05,0.0402403850000006
6.173134615,7.429814807139279e-06,7.101045906946763e-06,2.996057587998341e-06,3.938356864987403e-06,3.850680737956014e-05,2.643080558398432e-05,0.04075961500000069
6.173653846,7.414833277868984e-06,7.0978867962612015e-06,3.0102117600331303e-06,3.9277097935579024e-06,3.950115041539211e-05,2.643242104151765e-05,0.04127884599999998
6.174173077,7.409050232264642e-06,7.085521663401275e-06,3.026316130258072e-06,3.924504921727048e-06,3.991472849566335e-05,2.6434666434830235e-05,0.041798077000000156
6.174692308,7.410338396588478e-06,7.066962894021882e-06,3.0352898413791776e-06,3.931475689997618e-06,3.9970871253552544e-05,2.6435593380690585e-05,0.04231730800000033
6.175211538,7.407635627933176e-06,7.036728367899264e-06,3.037093564484668e-06,3.9295337077741405e-06,3.997478828569605e-05,2.6436428326709488e-05,0.042836538000000424
6.175730769,7.392923882234853e-06,6.989985163845084e-06,3.0370612909296717e-06,3.911428467089739e-06,4.000972308886195e-05,2.6452084074347368e-05,0.0433557690000006
6.17625,7.3736541824164914e-06,6.935271710114084e-06,3.03702236979694e-06,3.886615054736699e-06,4.003876679224327e-05,2.6504594428225063e-05,0.043874999999999886
6.176769231,7.354834469407334e-06,6.887102137691138e-06,3.037020839267469e-06,3.85996413965754e-06,4.0047443212652354e-05,2.660621850633848e-05,0.04439423100000006
6.177288462,7.326624172862014e-06,6.8466258380982e-06,3.038070980320708e-06,3.840259415896075e-06,4.004624575356659e-05,2.6751889952511924e-05,0.04491346200000024
6.177807692,7.273041022977923e-06,6.804153054349404e-06,3.0387843656443697e-06,3.8391076281436605e-06,4.004327226919508e-05,2.6896745643902204e-05,0.04543269200000033
6.178326923,7.200991259558234e-06,6.752375916127342e-06,3.038541868916459e-06,3.840172672641423e-06,4.0040736486553454e-05,2.696493613902216e-05,0.045951923000000505
6.178846154,7.1457978238142524e-06,6.697674899289353e-06,3.037934676721796e-06,3.847300241214343e-06,4.003947839746064e-05,2.696594530085384e-05,0.04647115400000068
6.179365385,7.117330936467163e-06,6.656161104475637e-06,3.0353895225712586e-06,3.882498513842039e-06,4.004085296056028e-05,2.700045192114128e-05,0.04699038499999997
6.179884615,7.095313254862213e-06,6.632896743949431e-06,3.031387935223642e-06,3.91137994606727e-06,4.004341245297877e-05,2.7069399753600584e-05,0.04750961500000006
6.180403846,7.0502511306522506e-06,6.620634937262877e-06,3.0291634503444086e-06,3.910951780877001e-06,4.004357585845671e-05,2.710302139569642e-05,0.048028846000000236
6.180923077,6.9570770516215965e-06,6.613761734980318e-06,3.029110647654069e-06,3.9077593753905015e-06,4.00428362419573e-05,2.710504290274834e-05,0.04854807700000041
6.181442308,6.850797451233226e-06,6.614380590812118e-06,3.0288339847050844e-06,3.907268146198557e-06,4.004273908992612e-05,2.7103546451151e-05,0.04906730800000059
6.181961538,6.792137340531042e-06,6.628199170996504e-06,3.0298544683134403e-06,3.903858944167523e-06,4.004009655892131e-05,2.7105522673444407e-05,0.04958653800000068
6.182480769,6.778785603638077e-06,6.653022915022338e-06,3.0335695621989684e-06,3.898687365075855e-06,4.0037861179845496e-05,2.7105667764945717e-05,0.05010576899999997
6.183,6.783484768218315e-06,6.68098707824532e-06,3.0360302829374187e-06,3.887215027421583e-06,4.003855169051884e-05,2.709025104865524e-05,0.05062500000000014
6.183519231,6.800725595776589e-06,6.710434826991972e-06,3.0362294035206354e-06,3.881247072925403e-06,4.00370794871852e-05,2.7056383673802303e-05,0.05114423100000032
6.184038462,6.834914927222976e-06,6.742310650056667e-06,3.039134195537596e-06,3.881364999391825e-06,4.0035638219657975e-05,2.7019208047413776e-05,0.05166346200000049
6.184557692,6.900372532368954e-06,6.7690892830159576e-06,3.0493124643072083e-06,3.871679255782916e-06,4.004338493635496e-05,2.6996646446697425e-05,0.052182692000000586
6.185076923,6.994034593879236e-06,6.762646262176894e-06,3.067201509862919e-06,3.875290559203467e-06,4.007078607669956e-05,2.699211878982913e-05,0.05270192299999987
6.185596154,7.080898488848112e-06,6.689423126426187e-06,3.089399876926744e-06,3.9029352098479245e-06,4.012270582074408e-05,2.699050575594693e-05,0.05322115400000005
6.186115385,7.125866834400217e-06,6.560619077852311e-06,3.1095741474337704e-06,3.916648665861539e-06,4.017993240718061e-05,2.696369118396555e-05,0.053740385000000224
6.186634615,7.125120331104334e-06,6.427743873750523e-06,3.121695466722632e-06,3.911098684274405e-06,4.021451726187859e-05,2.6888781502515395e-05,0.054259615000000316
6.187153846,7.108047370849727e-06,6.317922073767018e-06,3.12544333139241e-06,3.910986898954308e-06,4.022458900140784e-05,2.6788147819425644e-05,0.05477884600000049
6.187673077,7.09929989604691e-06,6.216589871703615e-06,3.125423893020428e-06,3.910695725533769e-06,4.022380816778337e-05,2.672600002369441e-05,0.05529807700000067
6.188192308,7.1003479190767135e-06,6.1112161518179135e-06,3.1258108395377573e-06,3.899762583242818e-06,4.022259222906064e-05,2.6720958778560036e-05,0.055817307999999954
6.188711538,7.107062062452268e-06,6.019406085075142e-06,3.127257555604524e-06,3.8975682532570776e-06,4.023309161533789e-05,2.673365357192758e-05,0.05633653800000005
6.189230769,7.115142454836635e-06,5.970425628740236e-06,3.1325261217846755e-06,3.917604806253923e-06,4.024720466546455e-05,2.6753879715443005e-05,0.05685576900000022
6.18975,7.122642329093795e-06,5.973513005390331e-06,3.143981851572625e-06,3.934062063569164e-06,4.0229195575239486e-05,2.678510281675288e-05,0.0573750000000004
6.190269231,7.140634324648729e-06,6.006308217247654e-06,3.1530504611241773e-06,3.932257333391449e-06,4.0168095658659575e-05,2.6802521315578893e-05,0.05789423100000057
6.190788462,7.186212202266289e-06,6.035697423825718e-06,3.155088563500981e-06,3.928820699417536e-06,4.009861660849011e-05,2.6803039503123795e-05,0.05841346200000075
6.191307692,7.259771199626235e-06,6.047862434408125e-06,3.155128578931248e-06,3.914823385700847e-06,4.0060917194710656e-05,2.6798304703938147e-05,0.05893269199999995
6.191826923,7.328489179208116e-06,6.04861000332417e-06,3.1563584010707185e-06,3.8879038413084914e-06,4.007348821502872e-05,2.6783321964664836e-05,0.05945192300000013
6.192346154,7.352801312334915e-06,6.045699862295215e-06,3.156764105507793e-06,3.884020669873175e-06,4.012765800367426e-05,2.6775616219011894e-05,0.059971154000000304
6.192865385,7.324953534876424e-06,6.043548072726128e-06,3.158641603341992e-06,3.890308869714974e-06,4.018479473125702e-05,2.678883751512038e-05,0.06049038500000048
6.193384615,7.254270582662619e-06,6.0442263521017655e-06,3.173378889660969e-06,3.875150107728015e-06,4.020930792373173e-05,2.6798622235408e-05,0.06100961500000057
6.193903846,7.1520734483990685e-06,6.038771345633439e-06,3.199551327201777e-06,3.861596362167611e-06,4.020972692137555e-05,2.6798226070493265e-05,0.06152884600000075
6.194423077,7.024836268952238e-06,6.010035235900146e-06,3.219766688653296e-06,3.85936883834994e-06,4.021276095423353e-05,2.680013708216196e-05,0.062048077000000035
6.194942308,6.866664432996693e-06,5.957832760281287e-06,3.224972348491656e-06,3.859945591764809e-06,4.021692405953526e-05,2.6810353755519997e-05,0.06256730800000021
6.195461538,6.690117855441601e-06,5.900173878278342e-06,3.225171815762001e-06,3.862262715067759e-06,4.0211600283193465e-05,2.683246350619699e-05,0.0630865380000003
6.195980769,6.541797677398918e-06,5.850388422993712e-06,3.2297319589565385e-06,3.850668614913212e-06,4.023218773728242e-05,2.6853181562876216e-05,0.06360576900000048
6.1965,6.463035537663634e-06,5.8121574526976666e-06,3.2343082814623864e-06,3.83576023491006e-06,4.033011108635705e-05,2.6858956494117735e-05,0.06412500000000065
6.197019231,6.444234046162508e-06,5.785472100377787e-06,3.236077966145586e-06,3.8352079012304e-06,4.048368544297722e-05,2.685236536240231e-05,0.06464423099999994
6.197538462,6.445306475321067e-06,5.76638612015264e-06,3.229914429493877e-06,3.831387851155896e-06,4.061836430413717e-05,2.6852963695046e-05,0.06516346200000012
6.198057692,6.44620158071646e-06,5.748770062907951e-06,3.213511282770464e-06,3.826927180216085e-06,4.067588152389374e-05,2.6851014548586414e-05,0.06568269200000021
6.198576923,6.445520318347855e-06,5.731093781306623e-06,3.2027034982510598e-06,3.8367352309871256e-06,4.066561459744055e-05,2.6814216452584973e-05,0.06620192300000038
6.199096154,6.4454974070717394e-06,5.715856783426919e-06,3.207695090222228e-06,3.847156340015173e-06,4.0688890805607095e-05,2.6799157229482684e-05,0.06672115400000056
6.199615385,6.441724027254868e-06,5.699298884657079e-06,3.222962831514101e-06,3.84943455379223e-06,4.084228810493527e-05,2.678137469541004e-05,0.06724038500000074
6.200134615,6.427395474230504e-06,5.6726692002276655e-06,3.243313073299132e-06,3.837476019166848e-06,4.108204261038347e-05,2.662517585944477e-05,0.06775961499999994
6.200653846,6.415726805902026e-06,5.637472513028077e-06,3.262765268011401e-06,3.8023482755546654e-06,4.1251869546256703e-05,2.63614193142658e-05,0.06827884600000012
6.201173077,6.416261913502253e-06,5.604795690772007e-06,3.2732031969146736e-06,3.7671456181152863e-06,4.131356629260846e-05,2.6103945876094616e-05,0.06879807700000029
6.201692308,6.412332680820693e-06,5.579873723227422e-06,3.2751225149229224e-06,3.754729681575797e-06,4.1361964691184736e-05,2.589113079843369e-05,0.06931730800000047
6.202211538,6.394487644530542e-06,5.558814220115499e-06,3.274818156922009e-06,3.7538201073580105e-06,4.138982118637282e-05,2.5768665293538316e-05,0.06983653800000056
6.202730769,6.374930987520715e-06,5.536340352324037e-06,3.2745315954033106e-06,3.761106371804147e-06,4.137455881420127e-05,2.5764743656641843e-05,0.07035576900000073
6.20325,6.364515049887563e-06,5.511757527592565e-06,3.2763825446466837e-06,3.7732846946111297e-06,4.142694290735936e-05,2.5624171558037623e-05,0.07087500000000002
6.203769231,6.362145851140318e-06,5.489749597109218e-06,3.2806203228742843e-06,3.769142026375351e-06,4.156066114042222e-05,2.506704295142893e-05,0.0713942310000002
6.204288462,6.362115379541675e-06,5.475035239893825e-06,3.2827577347391865e-06,3.7570182036830544e-06,4.160121269497429e-05,2.4417070782211384e-05,0.07191346200000037
6.204807692,6.365232993705442e-06,5.468613443887034e-06,3.2829856229991345e-06,3.758253692757995e-06,4.158592668772175e-05,2.4126743924804366e-05,0.07243269200000046
6.205326923,6.386297002530065e-06,5.469699050694765e-06,3.2831176371493915e-06,3.7646914858040313e-06,4.182954044290967e-05,2.40900042999558e-05,0.07295192300000064
6.205846154,6.437168990007559e-06,5.4759363839208425e-06,3.2799086838785417e-06,3.765002284038951e-06,4.229300059662765e-05,2.408941548501541e-05,0.07347115399999993
6.206365385,6.501172100798357e-06,5.481527411426717e-06,3.27324550078852e-06,3.7581861211507513e-06,4.254966254913056e-05,2.4073209615023745e-05,0.0739903850000001
6.206884615,6.5535882112702034e-06,5.480557725709961e-06,3.270593945998561e-06,3.748707469329414e-06,4.254249488876205e-05,2.399646921378854e-05,0.0745096150000002
6.207403846,6.592785208968693e-06,5.47124131176469e-06,3.2755385871236525e-06,3.745497093875702e-06,4.26136806631332e-05,2.3907456381627876e-05,0.07502884600000037
6.207923077,6.6304734330500605e-06,5.452771907442863e-06,3.280187188751919e-06,3.7483513027928632e-06,4.284484665128964e-05,2.388703746541188e-05,0.07554807700000055
6.208442308,6.674494710460179e-06,5.420943335963913e-06,3.280475633443097e-06,3.749280991486928e-06,4.302693586122605e-05,2.387898732353118e-05,0.07606730800000072
6.208961538,6.71153003827502e-06,5.370456850563921e-06,3.27944509648836e-06,3.73902284322722e-06,4.308245290138532e-05,2.378800507353567e-05,0.07658653799999993
6.209480769,6.71763215362499e-06,5.302409057437847e-06,3.271782904927645e-06,3.7124704854038416e-06,4.307912407900653e-05,2.3590124742579824e-05,0.0771057690000001
6.21,6.706780219178866e-06,5.2267452464681495e-06,3.260611676721396e-06,3.687864916930889e-06,4.305156798328847e-05,2.330189111010549e-05,0.07762500000000028
6.210519231,6.710725087649852e-06,5.15588003330534e-06,3.2603583816145265e-06,3.6839920104553618e-06,4.29904623723882e-05,2.2973957652362018e-05,0.07814423100000045
6.211038462,6.722617530622768e-06,5.095843503160875e-06,3.2652826688744206e-06,3.6819502366536417e-06,4.2903953956065846e-05,2.272568482892512e-05,0.07866346200000063
6.211557692,6.72528796651538e-06,5.04551544407728e-06,3.26584856138796e-06,3.6726691344622103e-06,4.284809609325586e-05,2.265487222973628e-05,0.07918269200000072
6.212076923,6.723604019752393e-06,5.006169669071534e-06,3.265703206045323e-06,3.67201179655843e-06,4.285182005423865e-05,2.2646878040953516e-05,0.07970192300000001
6.212596154,6.728847631516177e-06,4.980532105060405e-06,3.2571979374095865e-06,3.662948728227039e-06,4.2912656042462513e-05,2.244570202623904e-05,0.08022115400000018
6.213115385,6.7587095398807145e-06,4.970411960778327e-06,3.2318020723544117e-06,3.641732251545884e-06,4.30658413021573e-05,2.1984024089456123e-05,0.08074038500000036
6.213634615,6.828879167294938e-06,4.985065355806894e-06,3.2055735334157613e-06,3.639007380738673e-06,4.323634837210002e-05,2.1468651513522e-05,0.08125961500000045
6.214153846,6.932685312625677e-06,5.027993703025018e-06,3.200093882440404e-06,3.644511103904852e-06,4.3286324882711125e-05,2.1114377808824683e-05,0.08177884600000063
6.214673077,7.044228792989183e-06,5.075180122087989e-06,3.2152818386164023e-06,3.643628325791443e-06,4.32720114603732e-05,2.094800292117977e-05,0.08229807699999991
6.215192308,7.129746772031247e-06,5.097230415925463e-06,3.2351993817824888e-06,3.6520675763748183e-06,4.3293668190478005e-05,2.088570423296945e-05,0.08281730800000009
6.215711538,7.171266532134948e-06,5.095795275895916e-06,3.246461627795677e-06,3.661336412997981e-06,4.3317336244848254e-05,2.0860983921121133e-05,0.08333653800000018
6.216230769,7.180947702416146e-06,5.089657463591658e-06,3.2476915062343797e-06,3.660403683782989e-06,4.331764317847627e-05,2.084881002658258e-05,0.08385576900000036
6.21675,7.17648218047223e-06,5.085033066956016e-06,3.2396218554925497e-06,3.6668719287596367e-06,4.333067071293819e-05,2.0841078490292444e-05,0.08437500000000053
6.217269231,7.163855592389072e-06,5.077338052357322e-06,3.2085353434401427e-06,3.6744972104059143e-06,4.336329098467469e-05,2.0837106600067597e-05,0.08489423100000071
6.217788462,7.149381717725148e-06,5.058102234768126e-06,3.1565235133365103e-06,3.6631798042557535e-06,4.338225242160196e-05,2.084100476807056e-05,0.085413462
6.218307692,7.148945044250279e-06,5.02724193775591e-06,3.1179989942890403e-06,3.640043245815416e-06,4.338008122428549e-05,2.0848078577816665e-05,0.08593269200000009
6.218826923,7.1823626327087e-06,5.000066720035226e-06,3.106215035271412e-06,3.6175272182785353e-06,4.340361551031847e-05,2.08501513153858e-05,0.08645192300000026
6.219346154,7.244086608497105e-06,4.986046791198155e-06,3.1044644278495443e-06,3.608647329184937e-06,4.349124018215815e-05,2.085010707605514e-05,0.08697115400000044
6.219865385,7.292736492926521e-06,4.979311803621962e-06,3.103133006713693e-06,3.611636032185338e-06,4.361284296078879e-05,2.084228826672225e-05,0.08749038500000061
6.220384615,7.297809590272109e-06,4.973436509291211e-06,3.098581409828439e-06,3.608724790930244e-06,4.371474109738301e-05,2.08018978562515e-05,0.08800961500000071
6.220903846,7.2670978673871985e-06,4.971370303454315e-06,3.0897532089696678e-06,3.6037996934231376e-06,4.378137019019552e-05,2.072597302475065e-05,0.088528846
6.221423077,7.224982906392551e-06,4.977884228116647e-06,3.0839290574375964e-06,3.603778142044038e-06,4.382575210470474e-05,2.064148717209253e-05,0.08904807700000017
6.221942308,7.194254226277777e-06,4.988562469827231e-06,3.0839163197954053e-06,3.6059642861271656e-06,4.386022720049178e-05,2.055685861683003e-05,0.08956730800000035
6.222461538,7.183837137577872e-06,4.995666575323366e-06,3.081428512476464e-06,3.6128820065063393e-06,4.388657469946022e-05,2.0457042622278595e-05,0.09008653800000044
6.222980769,7.181363233517556e-06,4.997552357679007e-06,3.073563270428658e-06,3.613714195625657e-06,4.390123003339178e-05,2.0356996818268197e-05,0.09060576900000061
6.2235,7.178214164839867e-06,4.997534401812044e-06,3.068887511235386e-06,3.6027102446954417e-06,4.391088044025311e-05,2.0321073526265928e-05,0.0911249999999999
6.224019231,7.1803271287485694e-06,4.99730450714718e-06,3.0713718295239006e-06,3.599785768478656e-06,4.3919308597324754e-05,2.031582180843464e-05,0.09164423100000008
6.224538462,7.184177088554423e-06,4.994194764562912e-06,3.075995223257082e-06,3.6077675085239673e-06,4.389927163439477e-05,2.0204920154455884e-05,0.09216346200000025
6.225057692,7.184341871448612e-06,4.988856912737642e-06,3.0780778370119256e-06,3.6123383838434527e-06,4.382935767706423e-05,2.004224636387232e-05,0.09268269200000034
6.225576923,7.185955930895718e-06,4.988717099584737e-06,3.0737331315935587e-06,3.611598939739597e-06,4.372730742518543e-05,1.99900173829029e-05,0.09320192300000052
6.226096154,7.189807151371809e-06,4.997159077018444e-06,3.0645425505472765e-06,3.604962291274368e-06,4.3619766329547525e-05,1.9983192351861576e-05,0.0937211540000007
6.226615385,7.191839575190577e-06,5.007132929402243e-06,3.0605553237501665e-06,3.596022438893539e-06,4.35281954070307e-05,1.984356864543864e-05,0.09424038499999998
6.227134615,7.190562306603283e-06,5.011511888056872e-06,3.065517553629871e-06,3.592295740779976e-06,4.347148779192364e-05,1.9517249087004267e-05,0.09475961500000007
6.227653846,7.185573314563753e-06,5.012077884472789e-06,3.0736996324141418e-06,3.5934910004053853e-06,4.3443601372029984e-05,1.902345008540604e-05,0.09527884600000025
6.228173077,7.175714304775552e-06,5.012558230891272e-06,3.07937274443676e-06,3.601696536898346e-06,4.341308002406205e-05,1.836413362248533e-05,0.09579807700000043
6.228692308,7.156991854175205e-06,5.012920665661645e-06,3.0803871052662287e-06,3.60938045296177e-06,4.3309491630034895e-05,1.762049541347067e-05,0.0963173080000006
6.229211538,7.124166807400198e-06,5.014007190755489e-06,3.077650578995519e-06,3.607247471675433e-06,4.302070267330199e-05,1.7071326412680474e-05,0.0968365380000007
6.229730769,7.081544415126401e-06,5.015429319786431e-06,3.0711939861905637e-06,3.610910260530631e-06,4.2575657769980734e-05,1.689979773072098e-05,0.09735576899999998
6.23025,7.040233240020026e-06,5.015613723539752e-06,3.065154967197469e-06,3.6194578049777272e-06,4.217329889784696e-05,1.6896652849394623e-05,0.09787500000000016
6.230769231,7.007312279233751e-06,5.015713373682625e-06,3.064491009436692e-06,3.619572128937079e-06,4.192483884123899e-05,1.689712323244422e-05,0.09839423100000033
6.231288462,6.991483286252738e-06,5.015432065858786e-06,3.063584953538834e-06,3.6255344122835936e-06,4.181016835186118e-05,1.688245374667004e-05,0.09891346200000051
6.231807692,6.987127065257056e-06,5.016163725392738e-06,3.062180139711796e-06,3.6312369953003216e-06,4.179892995144271e-05,1.682660654554311e-05,0.0994326920000006
6.232326923,6.96670220402153e-06,5.020310834632065e-06,3.066597109129325e-06,3.621987076043672e-06,4.17620572122896e-05,1.6825439808104133e-05,0.09995192299999989
6.232846154,6.919640392399686e-06,5.0204718845959e-06,3.072188041006968e-06,3.623926075076748e-06,4.127416397116619e-05,1.640866109283404e-05,0.10047115400000006
6.233365385,6.868074331551311e-06,5.008838377382161e-06,3.0744670370492915e-06,3.630201342512463e-06,4.007070453493628e-05,1.5100937862790844e-05,0.10099038500000024
6.233884615,6.844300159176884e-06,4.9891604935084935e-06,3.071571364003852e-06,3.618186316444159e-06,3.8815836615512585e-05,1.3784587709866491e-05,0.10150961500000033
6.234403846,6.844491292058722e-06,4.965776301941316e-06,3.059069400385007e-06,3.6239341412273697e-06,3.8336451820129454e-05,1.3320205201292284e-05,0.1020288460000005
6.234923077,6.822832344135108e-06,4.940950697629839e-06,3.038859576050874e-06,3.6448523643739935e-06,3.834949680396956e-05,1.3286218202893325e-05,0.10254807700000068
6.235442308,6.767926420562248e-06,4.921091517798917e-06,3.0191592951617143e-06,3.645349699955667e-06,3.81919900924995e-05,1.32865823858119e-05,0.10306730799999997
6.235961538,6.719567419625881e-06,4.906624442772819e-06,3.010481449454652e-06,3.65274747522677e-06,3.7826912721251e-05,1.3282665509715152e-05,0.10358653800000006
6.236480769,6.697811729525085e-06,4.889332963573748e-06,3.0140062967250588e-06,3.675212912042375e-06,3.753037029044857e-05,1.3254415304766236e-05,0.10410576900000024
6.237,6.689034462644692e-06,4.870756231567053e-06,3.017435833189035e-06,3.6832032963535264e-06,3.7421911694308365e-05,1.3218779366338748e-05,0.10462500000000041
6.237519231,6.680032230950346e-06,4.864745011626002e-06,3.014098857315898e-06,3.683495528028169e-06,3.74442310551449e-05,1.3203619217372451e-05,0.10514423100000059
6.238038462,6.663654896759708e-06,4.87311621174266e-06,3.0079816511647948e-06,3.685002088231998e-06,3.743401138888617e-05,1.32056466127188e-05,0.10566346199999987
6.238557692,6.640837717267988e-06,4.883448661767826e-06,3.0028463612447563e-06,3.690492669312956e-06,3.7145167168328026e-05,1.3199142316513677e-05,0.10618269199999997
6.239076923,6.622371573038926e-06,4.8923534792279055e-06,3.003536084701585e-06,3.707898952880269e-06,3.6401099767715376e-05,1.3189182845693432e-05,0.10670192300000014
6.239596154,6.6131007397406936e-06,4.902273224346603e-06,3.0150246440276158e-06,3.722414981002073e-06,3.536306925112087e-05,1.3188800270722958e-05,0.10722115400000032
6.240115385,6.6079581762148575e-06,4.907142941299602e-06,3.02984760158794e-06,3.728193313895869e-06,3.448836625066278e-05,1.3116328191266963e-05,0.1077403850000005
6.240634615,6.600511511688023e-06,4.894402991526652e-06,3.037265360012397e-06,3.725990288540449e-06,3.404777249968947e-05,1.2946730618896456e-05,0.10825961500000059
6.241153846,6.582147791029032e-06,4.849277102718564e-06,3.0393772308737647e-06,3.7075207538903865e-06,3.391214148959713e-05,1.2821986357507462e-05,0.10877884599999987
6.241673077,6.550605914547477e-06,4.772815439355219e-06,3.039990982397032e-06,3.688577785848293e-06,3.3898152659895345e-05,1.2798698058304343e-05,0.10929807700000005
6.242192308,6.516418689490487e-06,4.694913329236966e-06,3.039707118816197e-06,3.6806523124923074e-06,3.395888252372063e-05,1.2798306113371667e-05,0.10981730800000022
6.242711538,6.49045159553496e-06,4.644483234434972e-06,3.0306258801723857e-06,3.676484130931599e-06,3.404154303096934e-05,1.2785480953330676e-05,0.11033653800000032
6.243230769,6.478290368450822e-06,4.62164972845334e-06,3.0014210000244404e-06,3.6728579616856464e-06,3.407887535432497e-05,1.2773219330049168e-05,0.11085576900000049
6.24375,6.476661529327549e-06,4.612164674360651e-06,2.9689918457685056e-06,3.668569243614473e-06,3.4080694564749464e-05,1.2767563202546411e-05,0.11137500000000067
6.244269231,6.47692734191317e-06,4.60578040384028e-06,2.953137294110551e-06,3.669079274757492e-06,3.408357885344297e-05,1.2766678677179698e-05,0.11189423099999996
6.244788462,6.476562024629617e-06,4.5993030009468524e-06,2.945565432785863e-06,3.680955836714879e-06,3.40879310572286e-05,1.276599591814277e-05,0.11241346200000013
6.245307692,6.475758939557965e-06,4.595585901244701e-06,2.936358406735449e-06,3.695041196274927e-06,3.4082206791006976e-05,1.2760009486167307e-05,0.11293269200000022
6.245826923,6.480169603327273e-06,4.595573044543553e-06,2.9277478672103272e-06,3.697277096868629e-06,3.4062544621104515e-05,1.2751392973901775e-05,0.1134519230000004
6.246346154,6.491970787443477e-06,4.594680539233742e-06,2.9255379501162544e-06,3.696615108880524e-06,3.402712459751107e-05,1.2748543659322309e-05,0.11397115400000057
6.246865385,6.493480674762715e-06,4.5917294860184704e-06,2.927101044582564e-06,3.700342328051533e-06,3.398118124088247e-05,1.2752832394092082e-05,0.11449038500000075
6.247384615,6.482082471635515e-06,4.58989326288472e-06,2.927299302887236e-06,3.700101067708725e-06,3.3951534304255e-05,1.2759815583139948e-05,0.11500961499999995
6.247903846,6.477497562613806e-06,4.589555999515972e-06,2.927092357057835e-06,3.702442015027823e-06,3.401327915868008e-05,1.2764873367420045e-05,0.11552884600000013
6.248423077,6.479276522826765e-06,4.5895649859739214e-06,2.9189808793129877e-06,3.7056743682656216e-06,3.431333257669134e-05,1.2764306685752537e-05,0.1160480770000003
6.248942308,6.480299116167367e-06,4.58914881793871e-06,2.894009646609336e-06,3.7019830551578233e-06,3.498712978482564e-05,1.2757631346668869e-05,0.11656730800000048
6.249461538,6.474359105498263e-06,4.5893286853986535e-06,2.870003829496779e-06,3.7043927091043614e-06,3.596515625318939e-05,1.2749488865529088e-05,0.11708653800000057
6.249980769,6.440429303517462e-06,4.59213815317813e-06,2.866240341063943e-06,3.71369420162972e-06,3.696237248778262e-05,1.2744773681863067e-05,0.11760576900000075
6.2505,6.37980096826967e-06,4.594083470340731e-06,2.8694615719757454e-06,3.7178486481385065e-06,3.771597209691672e-05,1.2743896006813027e-05,0.11812500000000004
6.251019231,6.321128121804848e-06,4.593769331751671e-06,2.8682772495447558e-06,3.71454690962094e-06,3.8127862687897006e-05,1.2744492965418124e-05,0.11864423100000021
6.251538462,6.276606466014245e-06,4.595255107700851e-06,2.869033041726818e-06,3.708068016995433e-06,3.8238561954030336e-05,1.2741337846463396e-05,0.11916346200000039
6.252057692,6.236984713753772e-06,4.597204576313799e-06,2.8730795746554005e-06,3.7087232801301232e-06,3.822818727622101e-05,1.2726545566258744e-05,0.11968269200000048
6.252576923,6.189292136870034e-06,4.597119700026357e-06,2.876615147754768e-06,3.716387631408919e-06,3.840772698263148e-05,1.2701539349419688e-05,0.12020192300000065
6.253096154,6.126651752733864e-06,4.596648814072149e-06,2.8764742090585137e-06,3.722400600217157e-06,3.8988203434961226e-05,1.2683671076372008e-05,0.12072115399999994
6.253615385,6.056116390232184e-06,4.597072750345492e-06,2.875205770902463e-06,3.7275005124250175e-06,3.981470934914611e-05,1.2681832379345129e-05,0.12124038500000012
6.254134615,5.996065276670486e-06,4.600719373435175e-06,2.8751852091840103e-06,3.731110555788867e-06,4.053958210918614e-05,1.2683221722486166e-05,0.12175961500000021
6.254653846,5.9617354388594505e-06,4.611436537312706e-06,2.873230256930726e-06,3.7304990994514736e-06,4.101234387017413e-05,1.2681471347269444e-05,0.12227884600000039
6.255173077,5.953484136283225e-06,4.626709215985227e-06,2.8719803901999637e-06,3.7284314517572144e-06,4.131715278523269e-05,1.2681697195140092e-05,0.12279807700000056
6.255692308,5.957987662095621e-06,4.637957581984919e-06,2.871829547968016e-06,3.720814708414624e-06,4.156391736020171e-05,1.2681185216194047e-05,0.12331730800000074
6.256211538,5.9603550652387325e-06,4.6426779740768974e-06,2.869217251060674e-06,3.7018687130665793e-06,4.178405690846863e-05,1.2676332699094134e-05,0.12383653799999994
6.256730769,5.957105875625527e-06,4.644407371603927e-06,2.8655649354881143e-06,3.685431250370455e-06,4.1954763491844405e-05,1.2669965488329888e-05,0.12435576900000012
6.25725,5.952007093086132e-06,4.645832029881626e-06,2.8603152047093427e-06,3.682011499543168e-06,4.206701752809932e-05,1.266392923811852e-05,0.12487500000000029
6.257769231,5.94847041582401e-06,4.649926618429406e-06,2.8517699863795103e-06,3.681664006103624e-06,4.215125256648761e-05,1.265680302757762e-05,0.12539423100000047
6.258288462,5.949486359255218e-06,4.65467153294124e-06,2.8423730076034603e-06,3.6853929804636174e-06,4.224590473562795e-05,1.2645684197039375e-05,0.12591346200000064
6.258807692,5.938493600401131e-06,4.655459436084672e-06,2.838103592979643e-06,3.69337816540378e-06,4.235140612137327e-05,1.2627678231775391e-05,0.12643269200000073
6.259326923,5.891604762245624e-06,4.654832483053173e-06,2.838856587390677e-06,3.688666610483139e-06,4.240479489736347e-05,1.260107673196944e-05,0.12695192300000002
6.259846154,5.831617813046179e-06,4.654713466297874e-06,2.840275861946295e-06,3.681270961967347e-06,4.240505055420916e-05,1.2569304300497914e-05,0.1274711540000002
6.260365385,5.797598255167351e-06,4.650517171918174e-06,2.8428708407660075e-06,3.687276117924119e-06,4.252200812203633e-05,1.254766268218622e-05,0.12799038500000037
6.260884615,5.7862480764467295e-06,4.637752520124142e-06,2.844162488996848e-06,3.691786493694469e-06,4.28804589715039e-05,1.2546875234940026e-05,0.12850961500000047
6.261403846,5.782285359290427e-06,4.615251359966524e-06,2.844570281065152e-06,3.6916062083052906e-06,4.337387248727163e-05,1.254058910530344e-05,0.12902884600000064
6.261923077,5.7816007764391e-06,4.586696589952527e-06,2.842664723073902e-06,3.6867555030523416e-06,4.3810562177983306e-05,1.2501929938233609e-05,0.12954807699999993
6.262442308,5.780525925997557e-06,4.5609079367788e-06,2.8322328568283503e-06,3.675449335085272e-06,4.406343066015836e-05,1.2459535470378787e-05,0.1300673080000001
6.262961538,5.781120571486349e-06,4.545492983595775e-06,2.8214091980956697e-06,3.673887264743476e-06,4.410727098263095e-05,1.2445045792574788e-05,0.1305865380000002
6.263480769,5.785739573489998e-06,4.541324119698192e-06,2.8170034553669544e-06,3.6662118408871615e-06,4.40985035694529e-05,1.2444878528086504e-05,0.13110576900000037
6.264,5.79013758411816e-06,4.544584206657226e-06,2.814947302612473e-06,3.6430271728648007e-06,4.430547517168181e-05,1.2441977180912117e-05,0.13162500000000055
6.264519231,5.791636291066127e-06,4.551025029571159e-06,2.8119890601096578e-06,3.637754890527068e-06,4.471090989409231e-05,1.2435903758926891e-05,0.13214423100000072
6.265038462,5.786321326508674e-06,4.5564599108949165e-06,2.800565295186212e-06,3.643776359219656e-06,4.498049870111311e-05,1.2427797361339796e-05,0.132663462
6.265557692,5.773403792787192e-06,4.556892874125309e-06,2.780696707855559e-06,3.6430602949269023e-06,4.501714461400194e-05,1.2419580152853512e-05,0.1331826920000001
6.266076923,5.763546981893068e-06,4.551732416403358e-06,2.7689143758432124e-06,3.6580121313317214e-06,4.503041080515878e-05,1.2418303089250231e-05,0.13370192300000028
6.266596154,5.7609972240405175e-06,4.544726189500498e-06,2.774124294145361e-06,3.691173262243024e-06,4.5093409927498986e-05,1.2416853410914278e-05,0.13422115400000045
6.267115385,5.760362116646304e-06,4.5387882168316086e-06,2.782079800944813e-06,3.717637646916947e-06,4.5120765369035193e-05,1.2393777155917971e-05,0.13474038500000063
6.267634615,5.760114602442049e-06,4.531897278309965e-06,2.780751346071001e-06,3.728090423921391e-06,4.510723947350551e-05,1.2362290809635468e-05,0.13525961500000072
6.268153846,5.7618664977619965e-06,4.519070004505692e-06,2.781198456448828e-06,3.730148268157626e-06,4.513365511377728e-05,1.2349660030397783e-05,0.135778846
6.268673077,5.76681077397396e-06,4.495129560910531e-06,2.790555589862815e-06,3.730677693577912e-06,4.5275553483375264e-05,1.2353389525530546e-05,0.13629807700000018
6.269192308,5.7723398575420094e-06,4.456828543239792e-06,2.7963939577815798e-06,3.732015090760785e-06,4.554923575112927e-05,1.2364023184707432e-05,0.13681730800000036
6.269711538,5.772592352819544e-06,4.4039091487733005e-06,2.7960314004049783e-06,3.739045492756132e-06,4.587609246942425e-05,1.2371448043871886e-05,0.13733653800000045
6.270230769,5.768293232639289e-06,4.341708624677565e-06,2.797927790849297e-06,3.758207483240338e-06,4.612554515351453e-05,1.2369596225791887e-05,0.13785576900000063
6.27075,5.76872235185306e-06,4.283847461433729e-06,2.7941353227646493e-06,3.7811359696657336e-06,4.623647894590031e-05,1.2362444170843006e-05,0.13837499999999991
6.271269231,5.775564384664171e-06,4.241506883727265e-06,2.780603197037936e-06,3.791031284767987e-06,4.62536066607064e-05,1.235877322168809e-05,0.1388942310000001
6.271788462,5.779721700191532e-06,4.2140376205591e-06,2.77025051266599e-06,3.7908884822142616e-06,4.624342361325133e-05,1.23641060273075e-05,0.13941346200000027
6.272307692,5.780197795657363e-06,4.197448381229969e-06,2.76631788679739e-06,3.790766383551428e-06,4.623524902846786e-05,1.2366889049252023e-05,0.13993269200000036
6.272826923,5.786145641617255e-06,4.190441185944977e-06,2.7635151597631105e-06,3.7897971866695434e-06,4.623101699781448e-05,1.2363902198410076e-05,0.14045192300000053
6.273346154,5.809221237122781e-06,4.19062783162542e-06,2.7572404400906005e-06,3.789722065760392e-06,4.622792146786344e-05,1.2363333377228548e-05,0.1409711540000007
6.273865385,5.852147832874589e-06,4.19368189002788e-06,2.746608563108224e-06,3.7871411143641073e-06,4.622794285886441e-05,1.2362518553396543e-05,0.141490385
6.274384615,5.892928791305668e-06,4.197619135201213e-06,2.73923983425439e-06,3.782787397481657e-06,4.62343241428792e-05,1.2358071562179796e-05,0.1420096150000001
6.274903846,5.910543030358519e-06,4.2031462616359e-06,2.73898913523782e-06,3.790922296299775e-06,4.625419699342648e-05,1.2348741648046297e-05,0.14252884600000026
6.275423077,5.907241548615138e-06,4.208613471566814e-06,2.73816344592009e-06,3.804370661081216e-06,4.630276540835092e-05,1.2329740916633214e-05,0.14304807700000044
6.275942308,5.887610791950894e-06,4.200589438321876e-06,2.7331109691129027e-06,3.811078581319396e-06,4.6370012043604895e-05,1.230246212031636e-05,0.14356730800000062
6.276461538,5.860507223332552e-06,4.167510154702511e-06,2.7293498110133554e-06,3.815842892556368e-06,4.641415283094863e-05,1.228252454935767e-05,0.1440865380000007
6.276980769,5.841291661285119e-06,4.125386522656955e-06,2.728251428820015e-06,3.819563933884612e-06,4.641850626369807e-05,1.22753116526908e-05,0.144605769
6.2775,5.836246967126349e-06,4.095473772155966e-06,2.7281976570487805e-06,3.825044135539374e-06,4.6404714671708455e-05,1.2269568040789862e-05,0.14512500000000017
6.278019231,5.84684492075354e-06,4.0786991711826805e-06,2.726871346979751e-06,3.835819394730402e-06,4.639753492347663e-05,1.223924661549717e-05,0.14564423100000035
6.278538462,5.86409067477263e-06,4.068484415917389e-06,2.719916829223988e-06,3.845343935788863e-06,4.640220096540454e-05,1.2142179654337984e-05,0.14616346200000052
6.279057692,5.8750938583694565e-06,4.061599780960398e-06,2.7083448194486035e-06,3.845685902429445e-06,4.6405672256809024e-05,1.2030910632913202e-05,0.14668269200000061
6.279576923,5.877189245851516e-06,4.05900919882738e-06,2.6871270996735354e-06,3.824529082597104e-06,4.6403206413703386e-05,1.2013129453300737e-05,0.1472019229999999
6.280096154,5.870619120939925e-06,4.0597798166889005e-06,2.6484045025820247e-06,3.7723670658663753e-06,4.642219343950272e-05,1.1980523595572351e-05,0.14772115400000008
6.280615385,5.862770590622935e-06,4.059256157514135e-06,2.606846134061838e-06,3.709270720001265e-06,4.6520276659976966e-05,1.1785636023654232e-05,0.14824038500000025
6.281134615,5.862246447625913e-06,4.054436746608642e-06,2.5857347236990016e-06,3.666064235722815e-06,4.6759255494584e-05,1.1573976826716709e-05,0.14875961500000034
6.281653846,5.8674882238545015e-06,4.041473051742272e-06,2.5882388217492787e-06,3.6525604392100745e-06,4.7168944714825e-05,1.1498762535752026e-05,0.14927884600000052
6.282173077,5.87392721425602e-06,4.013010465373271e-06,2.602875156880281e-06,3.668610244912976e-06,4.769461600672142e-05,1.1493409683434383e-05,0.1497980770000007
6.282692308,5.878645910562611e-06,3.970033932404135e-06,2.6206806575886208e-06,3.6987257808663455e-06,4.81440494941988e-05,1.149344185008268e-05,0.15031730799999998
6.283211538,5.879782789524218e-06,3.93239957843034e-06,2.6277640991327885e-06,3.7109096257847616e-06,4.831825284782437e-05,1.1487899469932247e-05,0.15083653800000008
6.283730769,5.8783843253473954e-06,3.916051002742768e-06,2.614560433441899e-06,3.697964066549731e-06,4.83163341875807e-05,1.1460365994813704e-05,0.15135576900000025
6.28425,5.877602731504649e-06,3.913891946507324e-06,2.598633798382818e-06,3.6805504584972833e-06,4.843845538765469e-05,1.143257409621798e-05,0.15187500000000043
6.284769231,5.878735822021279e-06,3.914180631004946e-06,2.598678106460609e-06,3.673260993547615e-06,4.869902066096773e-05,1.1432551304044174e-05,0.1523942310000006
6.285288462,5.882179923460793e-06,3.9135031998118524e-06,2.6053005932459066e-06,3.690172223870126e-06,4.887949114456715e-05,1.1383046827558562e-05,0.1529134619999999
6.285807692,5.884146575637523e-06,3.911713924295302e-06,2.603413004350356e-06,3.735302009623674e-06,4.892858704625687e-05,1.1175688327833652e-05,0.15343269199999998
6.286326923,5.879461112576601e-06,3.907346282597832e-06,2.598851712536882e-06,3.77244432397293e-06,4.893008570624685e-05,1.0873046528420762e-05,0.15395192300000016
6.286846154,5.872185351347118e-06,3.901626899306666e-06,2.6018389743066453e-06,3.779087780887044e-06,4.892764013395022e-05,1.0614221127313114e-05,0.15447115400000033
6.287365385,5.866693858407207e-06,3.899234439940525e-06,2.606424616153059e-06,3.775439399994754e-06,4.892373917433777e-05,1.0413619523747124e-05,0.1549903850000005
6.287884615,5.860329804106572e-06,3.899845022514266e-06,2.6061434801548318e-06,3.7690791934896903e-06,4.891288208974117e-05,1.0238693270921066e-05,0.1555096150000006
6.288403846,5.8502147681974736e-06,3.8995133275103164e-06,2.6007249593661308e-06,3.744389440710546e-06,4.889040164760453e-05,1.014649756294977e-05,0.1560288459999999
6.288923077,5.837913245842362e-06,3.895816146470965e-06,2.5845008517283994e-06,3.683585569700547e-06,4.886065077778392e-05,1.0146865237557382e-05,0.15654807700000006
6.289442308,5.831199187526141e-06,3.8904171649190765e-06,2.5567632130174845e-06,3.603656717851912e-06,4.88556622967344e-05,9.977950057511155e-06,0.15706730800000024
6.289961538,5.834455048142876e-06,3.88879722723164e-06,2.530320636001228e-06,3.560322576090597e-06,4.895956021427448e-05,9.53547618422968e-06,0.15758653800000033
6.290480769,5.839286974805055e-06,3.894434390951737e-06,2.5160796863526564e-06,3.556870094965886e-06,4.924050598957132e-05,9.124994554203144e-06,0.1581057690000005
6.291,5.839141509388575e-06,3.904505242421958e-06,2.5128025524460194e-06,3.5522189772043503e-06,4.964133619150503e-05,8.930611033848398e-06,0.15862500000000068
6.291519231,5.837742380942817e-06,3.910171726581583e-06,2.513269128124894e-06,3.529519114609614e-06,5.005365903190312e-05,8.871395747783989e-06,0.15914423099999997
6.292038462,5.836003995874295e-06,3.902327513898148e-06,2.51143225275457e-06,3.4790709975758524e-06,5.042093308814899e-05,8.863426362346775e-06,0.15966346200000014
6.292557692,5.836381677822306e-06,3.882446685323323e-06,2.502258205404034e-06,3.4294309734559804e-06,5.068180728374802e-05,8.861718883672433e-06,0.16018269200000024
6.293076923,5.845496737556745e-06,3.865737635386812e-06,2.4828035816229986e-06,3.432394708377408e-06,5.075532826021971e-05,8.809601850023159e-06,0.1607019230000004
6.293596154,5.859229746900017e-06,3.864235349413459e-06,2.459884733907423e-06,3.4691687628053053e-06,5.076755050053798e-05,8.736305968717844e-06,0.1612211540000006
6.294115385,5.869324561977807e-06,3.876134364525497e-06,2.4451101155250834e-06,3.493084661878633e-06,5.106528643971621e-05,8.736328549545963e-06,0.16174038499999988
6.294634615,5.875292890429914e-06,3.892367561443509e-06,2.4405989728727976e-06,3.495778565322959e-06,5.166718837863054e-05,8.621706354569458e-06,0.16225961499999997
6.295153846,5.878397537324387e-06,3.902276482453102e-06,2.4397475043096893e-06,3.4894002258899867e-06,5.2181445154559855e-05,8.253791344914336e-06,0.16277884600000014
6.295673077,5.8774304614183006e-06,3.9011031812499774e-06,2.4391629031657704e-06,3.4862407358478934e-06,5.244107103304518e-05,7.93131699322169e-06,0.16329807700000032
6.296192308,5.873705125758598e-06,3.892706632576751e-06,2.4396269685810675e-06,3.4862618920694866e-06,5.25945257114421e-05,7.836830598221269e-06,0.1638173080000005
6.296711538,5.869381030947168e-06,3.878222310392447e-06,2.4401967537034112e-06,3.486925911069065e-06,5.267461531125425e-05,7.832447914894898e-06,0.1643365380000006
6.297230769,5.865952102384955e-06,3.84953785207222e-06,2.4396611637939163e-06,3.4934055135547086e-06,5.25175494017681e-05,7.833085192395826e-06,0.16485576899999987
6.29775,5.865030792223597e-06,3.80729393109864e-06,2.437255574485817e-06,3.502335189657023e-06,5.197832780792119e-05,7.832317692943784e-06,0.16537500000000005
6.298269231,5.8650353104028685e-06,3.7684596124634414e-06,2.430048649265646e-06,3.505698353080909e-06,5.117118847530298e-05,7.826926226789327e-06,0.16589423100000023
6.298788462,5.8650479021049e-06,3.7431664784885455e-06,2.415904530000703e-06,3.504684327935761e-06,5.049033055002044e-05,7.818500232321503e-06,0.1664134620000004
6.299307692,5.865022067370372e-06,3.731452696774849e-06,2.398069567021901e-06,3.503872269806453e-06,5.0198601410564994e-05,7.80974832916709e-06,0.1669326920000005
6.299826923,5.867607718854245e-06,3.7339568242774154e-06,2.386832655573472e-06,3.5116705724188224e-06,5.016811130150271e-05,7.806672451291195e-06,0.16745192300000067
6.300346154,5.87696958723797e-06,3.746153132143307e-06,2.3963665142884388e-06,3.531790750270052e-06,5.016940273165529e-05,7.804241602260967e-06,0.16797115399999996
6.300865385,5.886830382999786e-06,3.7591223581760496e-06,2.423531649228685e-06,3.544908697007346e-06,5.013927230642584e-05,7.750971703711818e-06,0.16849038500000013
6.301384615,5.889904704184697e-06,3.766795991303925e-06,2.4447631197589174e-06,3.544490032181034e-06,5.011838331708534e-05,7.569443510108554e-06,0.16900961500000022
6.301903846,5.8892730750201165e-06,3.7683921409087694e-06,2.449868846952958e-06,3.55600022844662e-06,5.013497689539081e-05,7.205003706955055e-06,0.1695288460000004
6.302423077,5.888825682484561e-06,3.7680134966081726e-06,2.447963903448665e-06,3.569193568971776e-06,5.018380078137277e-05,6.643496990094964e-06,0.17004807700000057
6.302942308,5.8890098842839065e-06,3.768002287060063e-06,2.446988140526105e-06,3.562533684324325e-06,5.023846498112164e-05,6.026423719154621e-06,0.17056730800000075
6.303461538,5.891974848800615e-06,3.766852453782237e-06,2.4487715321155207e-06,3.566889746234598e-06,5.0272793638690616e-05,5.71004751837656e-06,0.17108653799999995
6.303980769,5.897723713101971e-06,3.765789111562113e-06,2.450873197040619e-06,3.5698030358993413e-06,5.028414526305804e-05,5.705572932332165e-06,0.17160576900000013
6.3045,5.8999939825799455e-06,3.7638127810669338e-06,2.4508074252453e-06,3.533713036198844e-06,5.028498524628144e-05,5.541053763403185e-06,0.1721250000000003
6.305019231,5.898616155279004e-06,3.760886325215084e-06,2.452027109709575e-06,3.500865045727148e-06,5.028309365156635e-05,5.192968009044721e-06,0.17264423100000048
6.305538462,5.9006500867764434e-06,3.7629853300096097e-06,2.454275625565349e-06,3.4967280865092645e-06,5.0281670960565206e-05,5.005187658213601e-06,0.17316346200000066
6.306057692,5.906458994782995e-06,3.7648385069921247e-06,2.45419654975628e-06,3.504993860450512e-06,5.028132098533733e-05,4.975185014452994e-06,0.17368269200000075
6.306576923,5.913424245994363e-06,3.753518942563153e-06,2.460112029110274e-06,3.527655977726993e-06,5.02827599380936e-05,4.972207452280293e-06,0.17420192300000004
6.307096154,5.921922983258069e-06,3.724921035337916e-06,2.469983066405208e-06,3.5442958020606585e-06,5.028798461882536e-05,4.964816107406651e-06,0.1747211540000002
6.307615385,5.930700848160727e-06,3.682570259918254e-06,2.46886982019855e-06,3.5416096824042214e-06,5.0294178665500895e-05,4.945446638311646e-06,0.1752403850000004
6.308134615,5.933012370735289e-06,3.632323143990321e-06,2.4589609177587366e-06,3.541432634621876e-06,5.029712531051719e-05,4.932265696069094e-06,0.17575961500000048
6.308653846,5.9190153785565626e-06,3.5757750955617257e-06,2.446983079080043e-06,3.548780827754496e-06,5.0297476897497387e-05,4.930525242765525e-06,0.17627884600000066
6.309173077,5.878397072875984e-06,3.5100980900425534e-06,2.431842118456066e-06,3.5574616125148104e-06,5.029698784544599e-05,4.930526796154072e-06,0.17679807699999994
6.309692308,5.800554328132121e-06,3.4365042489098174e-06,2.413468715300397e-06,3.5668417051662225e-06,5.029093062261097e-05,4.930535594413511e-06,0.17731730800000012
6.310211538,5.6887725157089e-06,3.3682588608732205e-06,2.3900267384740058e-06,3.562411917622979e-06,5.026991042550642e-05,4.930341026072413e-06,0.1778365380000002
6.310730769,5.580435680412546e-06,3.327250138642533e-06,2.365294278104854e-06,3.5395777014646355e-06,5.024917688855975e-05,4.932438354003976e-06,0.17835576900000039
6.31125,5.519947472363007e-06,3.31941791236898e-06,2.351071140065541e-06,3.52266530298785e-06,5.0278348387377576e-05,4.9662265383389634e-06,0.17887500000000056
6.311769231,5.505828170772858e-06,3.3209349468581568e-06,2.348875370993484e-06,3.528374783962655e-06,5.035471707935218e-05,5.054700285110563e-06,0.17939423100000074
6.312288462,5.506643283670029e-06,3.311457705452612e-06,2.3502583122416222e-06,3.5493844669420747e-06,5.039922899222371e-05,5.111786442653193e-06,0.17991346200000002
6.312807692,5.504270408797961e-06,3.296304440251431e-06,2.3508488683960385e-06,3.5685960599444343e-06,5.039918320526879e-05,5.110101882879431e-06,0.18043269200000012
6.313326923,5.4951871826675405e-06,3.283644397892941e-06,2.3503381750301386e-06,3.573787386411597e-06,5.042295464015965e-05,5.235431227297272e-06,0.1809519230000003
6.313846154,5.480846901585584e-06,3.2760166551531508e-06,2.3480774999733305e-06,3.569886597350876e-06,5.049365586277112e-05,5.434385295812249e-06,0.18147115400000047
6.314365385,5.458778293713168e-06,3.258248664520805e-06,2.340922274919579e-06,3.556133626419694e-06,5.059370546192358e-05,5.423381465256021e-06,0.18199038500000064
6.314884615,5.421363317311546e-06,3.204598567950378e-06,2.325608726390514e-06,3.538279855742105e-06,5.072494401519724e-05,5.258042612218231e-06,0.18250961500000074
6.315403846,5.368351225626104e-06,3.127222073925219e-06,2.3105847587563004e-06,3.5475173327048565e-06,5.088324678221085e-05,5.179346786859363e-06,0.18302884600000002
6.315923077,5.30164757976503e-06,3.065877522094282e-06,2.306179900879348e-06,3.560983020715232e-06,5.10261473200773e-05,5.187421793685634e-06,0.1835480770000002
6.316442308,5.217967718996474e-06,3.038815517707052e-06,2.308056083282448e-06,3.547453115810242e-06,5.111472682448826e-05,5.171113276467141e-06,0.18406730800000037
6.316961538,5.142857931923002e-06,3.034127821386585e-06,2.3102607842137e-06,3.557707761545619e-06,5.11453897017362e-05,5.151505160822942e-06,0.18458653800000047
6.317480769,5.117095396507517e-06,3.035131136298152e-06,2.3129363696513044e-06,3.5926145514676017e-06,5.113407635760056e-05,5.153403858252008e-06,0.18510576900000064
6.318,5.135283706972983e-06,3.036104834001265e-06,2.309691919182441e-06,3.5991187565676745e-06,5.110890909337566e-05,5.096001113656658e-06,0.18562499999999993
6.318519231,5.1661931158558864e-06,3.03801002930299e-06,2.290398022650714e-06,3.596430988550705e-06,5.109474877903722e-05,5.003114449828827e-06,0.1861442310000001
6.319038462,5.184112504129043e-06,3.0426492027391293e-06,2.26192562908742e-06,3.605734314262527e-06,5.109430488417685e-05,4.983028481271659e-06,0.18666346200000028
6.319557692,5.182994372187299e-06,3.0501857910427496e-06,2.2471226148838265e-06,3.610389467448848e-06,5.11103606440366e-05,4.9637796913233344e-06,0.18718269200000037
6.320076923,5.182542026645629e-06,3.0604885299817806e-06,2.254892078288119e-06,3.609102310702716e-06,5.11821678044573e-05,4.812311203116974e-06,0.18770192300000055
6.320596154,5.187883639454366e-06,3.0732349341644764e-06,2.265550749921738e-06,3.604554606912232e-06,5.136215144837127e-05,4.578059961930686e-06,0.18822115400000072
6.321115385,5.191471453879575e-06,3.084376836026134e-06,2.2610778860689124e-06,3.599151773514557e-06,5.163054531164407e-05,4.401260066233309e-06,0.188740385
6.321634615,5.194705378116531e-06,3.085767191140169e-06,2.251660933616521e-06,3.5985643799332505e-06,5.185804484172539e-05,4.30874324364597e-06,0.1892596150000001
6.322153846,5.195900153913915e-06,3.073635698421809e-06,2.250560371460833e-06,3.6075790133558495e-06,5.192855700954336e-05,4.267977172707476e-06,0.18977884600000028
6.322673077,5.1982784124910655e-06,3.0567437021702755e-06,2.2539904449424487e-06,3.631938952583712e-06,5.187516009921472e-05,4.326747389833588e-06,0.19029807700000045
6.323192308,5.212378460858763e-06,3.0491962262036666e-06,2.256897950731678e-06,3.6538835306291338e-06,5.181974045000654e-05,4.466497818042992e-06,0.19081730800000063
6.323711538,5.241716286983761e-06,3.0524935748340845e-06,2.2563866767936183e-06,3.6514455018032207e-06,5.181343449830912e-05,4.549380534030565e-06,0.19133653800000072
6.324230769,5.27971239927143e-06,3.054208996624512e-06,2.2474788633255344e-06,3.640659284675311e-06,5.179710958430148e-05,4.554353894875309e-06,0.191855769
6.32475,5.311315551010977e-06,3.0485091903418665e-06,2.2268206691611157e-06,3.638816197403185e-06,5.171172705534579e-05,4.5657069159871694e-06,0.19237500000000018
6.325269231,5.325117673518505e-06,3.0422158051083337e-06,2.1958635686729702e-06,3.639166379660559e-06,5.163543472111423e-05,4.590842965356052e-06,0.19289423100000036
6.325788462,5.326423562493265e-06,3.039978046332181e-06,2.1652521661576504e-06,3.63946019455688e-06,5.1863293573298193e-05,4.59779301318831e-06,0.19341346200000054
6.326307692,5.325137932901078e-06,3.040900682455342e-06,2.14896388937202e-06,3.639446360753897e-06,5.278739930483564e-05,4.588019505530339e-06,0.19393269200000063
6.326826923,5.323418240426228e-06,3.0437945061169403e-06,2.146859861872757e-06,3.639169534517036e-06,5.443602170502885e-05,4.572543434212109e-06,0.19445192299999992
6.327346154,5.323977492930604e-06,3.0467849273057758e-06,2.147912112143331e-06,3.643817909358047e-06,5.623172521049529e-05,4.564373232537028e-06,0.1949711540000001
6.327865385,5.326584875618012e-06,3.0482969719249983e-06,2.147358010725564e-06,3.6401586345967033e-06,5.749009586079001e-05,4.575980659189656e-06,0.19549038500000027
6.328384615,5.326425644095479e-06,3.0487019453186727e-06,2.143873580002429e-06,3.6242262419043302e-06,5.797225536212074e-05,4.615607045504493e-06,0.19600961500000036
6.328903846,5.325300987289441e-06,3.048134411248761e-06,2.1360451465224e-06,3.6193863733129736e-06,5.793645070785875e-05,4.704831191746146e-06,0.19652884600000053
6.329423077,5.326049486870312e-06,3.045487962587943e-06,2.131058611708607e-06,3.6207708827890656e-06,5.7863561725764907e-05,4.873794924670256e-06,0.1970480770000007
6.329942308,5.32401714151462e-06,3.0400520673672174e-06,2.136467301171224e-06,3.6128189356491776e-06,5.800518616408698e-05,5.079570559047938e-06,0.197567308
6.330461538,5.299993258425735e-06,3.0329763747349324e-06,2.1608429351291168e-06,3.609227492623032e-06,5.817849024054104e-05,5.184444464998015e-06,0.1980865380000001
6.330980769,5.237677947001527e-06,3.026001172443169e-06,2.2064134466590946e-06,3.61384833104423e-06,5.817186227074583e-05,5.178991891165606e-06,0.19860576900000027
6.3315,5.159982436218146e-06,3.022254780215461e-06,2.2462258443045697e-06,3.6155883804840856e-06,5.810725299201212e-05,5.257586750926009e-06,0.19912500000000044
6.332019231,5.1016259774228965e-06,3.029473061561596e-06,2.255350772084948e-06,3.614976505241329e-06,5.81209755910627e-05,5.455564817460292e-06,0.19964423100000062
6.332538462,5.061137849885834e-06,3.0568139642133697e-06,2.245451746247353e-06,3.6134894400885145e-06,5.808188919129888e-05,5.597320807085147e-06,0.2001634619999999
6.333057692,5.01701428970556e-06,3.1028477498575582e-06,2.2394433089713597e-06,3.6080882039501705e-06,5.813430955054085e-05,5.631832281319533e-06,0.200682692
6.333576923,4.959768806093324e-06,3.1504006749340987e-06,2.239649088653859e-06,3.602109465950908e-06,5.888403996549472e-05,5.629906459890971e-06,0.20120192300000017
6.334096154,4.909210783881684e-06,3.183370187074785e-06,2.2383722699729797e-06,3.6010587331787217e-06,6.03765040505032e-05,5.6261456047324566e-06,0.20172115400000035
6.334615385,4.892520523583025e-06,3.20129151983348e-06,2.2374587525922705e-06,3.6041634180512898e-06,6.17740425842347e-05,5.6195039104100784e-06,0.20224038500000052
6.335134615,4.892596050656998e-06,3.2120904487061864e-06,2.23863126572415e-06,3.606887457473723e-06,6.246348552947921e-05,5.609704741511007e-06,0.20275961500000061
6.335653846,4.879989609056531e-06,3.218292167231105e-06,2.2360913588344023e-06,3.607624114978215e-06,6.261525724840076e-05,5.6006423391352455e-06,0.2032788459999999
6.336173077,4.864656775642724e-06,3.2202355648647837e-06,2.232328593265468e-06,3.6077671933802495e-06,6.261993858945665e-05,5.598060669241374e-06,0.20379807700000008
6.336692308,4.860795509986317e-06,3.225449913152519e-06,2.232753770732886e-06,3.607552016457865e-06,6.261895837071551e-05,5.598791649856439e-06,0.20431730800000025
6.337211538,4.8663574044696296e-06,3.2382668772558226e-06,2.2342176992172704e-06,3.608047984373447e-06,6.261228726278821e-05,5.599372271662469e-06,0.20483653800000035
6.337730769,4.872428433478715e-06,3.2507566563375123e-06,2.235431293341492e-06,3.608821926695103e-06,6.25630678530261e-05,5.610103923542891e-06,0.20535576900000052
6.33825,4.84299160725795e-06,3.249436236534785e-06,2.2358844780784453e-06,3.604775972089385e-06,6.243903923594104e-05,5.624608497707559e-06,0.2058750000000007
6.338769231,4.742672874280786e-06,3.2173689842458674e-06,2.231422778369361e-06,3.598010236274341e-06,6.234902898332932e-05,5.625634868122371e-06,0.20639423099999998
6.339288462,4.585698815064778e-06,3.148054465807054e-06,2.221237644033479e-06,3.594817796675512e-06,6.238960041811056e-05,5.6372411952461135e-06,0.20691346200000016
6.339807692,4.413817665511995e-06,3.070702132400328e-06,2.203969217756721e-06,3.5899572922955933e-06,6.246795835210488e-05,5.675583418313327e-06,0.20743269200000025
6.340326923,4.273911740242135e-06,3.02657722132498e-06,2.1801144475664644e-06,3.5765684669037045e-06,6.249938982778255e-05,5.705885618848317e-06,0.20795192300000043
6.340846154,4.207391910240822e-06,3.0271053791158143e-06,2.163787767007494e-06,3.5671105231280577e-06,6.2512762657764e-05,5.7089565692289735e-06,0.2084711540000006
6.341365385,4.200805927957526e-06,3.0540971264058318e-06,2.161398814994836e-06,3.567893375806734e-06,6.251762635393131e-05,5.69979670492338e-06,0.2089903849999999
6.341884615,4.204544818040819e-06,3.08077130442654e-06,2.161178436503143e-06,3.560990157480474e-06,6.252773920598469e-05,5.698223878951148e-06,0.20950961499999998
6.342403846,4.202222717737873e-06,3.094036765212646e-06,2.159193072636438e-06,3.5544933578158125e-06,6.264209959026445e-05,5.702238626919705e-06,0.21002884600000016
6.342923077,4.196060061596718e-06,3.097455026252234e-06,2.1593777381932035e-06,3.5600979297631856e-06,6.28125651998315e-05,5.686118803107019e-06,0.21054807700000033
6.343442308,4.168315842295964e-06,3.096649060296467e-06,2.160301473299061e-06,3.5591147602614826e-06,6.285423693944227e-05,5.659068866236266e-06,0.2110673080000005
6.343961538,4.090017345025914e-06,3.093647638179029e-06,2.160414148110973e-06,3.558948822653678e-06,6.287517534150932e-05,5.650504636729848e-06,0.2115865380000006
6.344480769,3.967154104607451e-06,3.0904383055451987e-06,2.1603780071248938e-06,3.5669892070873027e-06,6.309041958585755e-05,5.653088789176939e-06,0.2121057689999999
6.345,3.8644069698108926e-06,3.09145921718036e-06,2.160648161018261e-06,3.566900317684351e-06,6.334706518003108e-05,5.654226189679759e-06,0.21262500000000006
6.345519231,3.827367384878047e-06,3.0981714210602933e-06,2.163954697618297e-06,3.564829339342424e-06,6.341304033232736e-05,5.655102017114673e-06,0.21314423100000024
6.346038462,3.826045783012008e-06,3.1022377926243e-06,2.174390813901695e-06,3.5665335882508576e-06,6.336813697230346e-05,5.655625247860628e-06,0.21366346200000041
6.346557692,3.827301956642917e-06,3.094521087889676e-06,2.189511993502337e-06,3.5667952691688115e-06,6.338064008341209e-05,5.655794814558502e-06,0.2141826920000005
6.347076923,3.826875886103388e-06,3.079683659754898e-06,2.199990107257774e-06,3.563767923657791e-06,6.343529346286027e-05,5.656569796628691e-06,0.21470192300000068
6.347596154,3.820426843379474e-06,3.069811173557281e-06,2.2019992751407547e-06,3.5565881281532898e-06,6.345192024691773e-05,5.660205752335158e-06,0.21522115399999997
6.348115385,3.8162722681037785e-06,3.067917074103065e-06,2.202497320311456e-06,3.55321646081368e-06,6.343810481376795e-05,5.6664832754396655e-06,0.21574038500000015
6.348634615,3.818774121955412e-06,3.068621926852128e-06,2.2071749336165462e-06,3.5538317296419912e-06,6.343040280173593e-05,5.671002317823641e-06,0.21625961500000024
6.349153846,3.814880478419311e-06,3.0687034575571424e-06,2.211099810642121e-06,3.5493208349308757e-06,6.343099968831801e-05,5.671886658813892e-06,0.2167788460000004
6.349673077,3.8138784411264375e-06,3.0687273819100425e-06,2.210400514449144e-06,3.546320810177297e-06,6.343119356204513e-05,5.670488488781467e-06,0.2172980770000006
6.350192308,3.823339547872039e-06,3.066243695176727e-06,2.2103166711984745e-06,3.559615653486566e-06,6.342938649533981e-05,5.66887976614783e-06,0.21781730799999988
6.350711538,3.825594621188825e-06,3.0541638453045223e-06,2.213921676160218e-06,3.5786384750649427e-06,6.342839069284857e-05,5.669504631679663e-06,0.21833653799999997
6.351230769,3.817053220764072e-06,3.032799721313465e-06,2.219954771456343e-06,3.583559077758531e-06,6.343185938627954e-05,5.673068414070446e-06,0.21885576900000014
6.35175,3.8092627495982953e-06,3.015188256192938e-06,2.228105091542696e-06,3.5823482952986862e-06,6.343732613609988e-05,5.675997806810612e-06,0.21937500000000032
6.352269231,3.810046367656162e-06,3.0083761291005343e-06,2.238459717442873e-06,3.583711935429873e-06,6.34386590753845e-05,5.675962765876892e-06,0.2198942310000005
6.352788462,3.81927914480876e-06,3.006690715848049e-06,2.2508282487258828e-06,3.582427299171085e-06,6.34381131558675e-05,5.6751821301030565e-06,0.22041346200000067
6.353307692,3.825657390126348e-06,3.007523256974724e-06,2.262385127631976e-06,3.578845043616314e-06,6.343582911893028e-05,5.675180822440359e-06,0.22093269199999988
6.353826923,3.822667716042852e-06,3.009809882865051e-06,2.267882833434872e-06,3.575418086647129e-06,6.342568994620086e-05,5.675678676327512e-06,0.22145192300000005
6.354346154,3.821207825962922e-06,3.0100822388031477e-06,2.2681373170374538e-06,3.5752959115623087e-06,6.341289661710564e-05,5.6758735717114764e-06,0.22197115400000023
6.354865385,3.822197714094543e-06,3.0103080069982663e-06,2.2673846469333745e-06,3.5706378821526355e-06,6.349337461584144e-05,5.67458113070434e-06,0.2224903850000004
6.355384615,3.822076434816091e-06,3.012052028522227e-06,2.266145062609018e-06,3.561883276085101e-06,6.388724558558342e-05,5.670357620060735e-06,0.2230096150000005
6.355903846,3.837230893049465e-06,3.0125134064121875e-06,2.265669500098509e-06,3.5668338657971925e-06,6.457375170378729e-05,5.6648270169062805e-06,0.22352884600000067
6.356423077,3.847639470676239e-06,3.012498313739605e-06,2.2667763851840148e-06,3.5677564773438517e-06,6.512495586978465e-05,5.66245145154094e-06,0.22404807699999996
6.356942308,3.825128760298541e-06,3.0084120638323874e-06,2.2694629218592723e-06,3.5571879402047184e-06,6.529729860131042e-05,5.662500457137847e-06,0.22456730800000013
6.357461538,3.808908761448891e-06,2.993649988233691e-06,2.272948591365984e-06,3.5631628013774604e-06,6.529208445956771e-05,5.662757147497743e-06,0.22508653800000022
6.357980769,3.8157639879348346e-06,2.980174240443232e-06,2.275117008853613e-06,3.5715053159530903e-06,6.53350710067168e-05,5.666294510738416e-06,0.2256057690000004
6.3585,3.818377672679803e-06,2.979182367461972e-06,2.276647540224249e-06,3.569780683413944e-06,6.549160009929029e-05,5.672601619888468e-06,0.22612500000000058
6.359019231,3.817988084035883e-06,2.9797067063792298e-06,2.2774784950340548e-06,3.569311397509369e-06,6.579913443781563e-05,5.676446024098392e-06,0.22664423100000075
6.359538462,3.819973830914375e-06,2.9777864874883106e-06,2.2751998110664566e-06,3.551177641190233e-06,6.627391671760912e-05,5.677025473427656e-06,0.22716346200000004
6.360057692,3.819815978843622e-06,2.9785176970960494e-06,2.273504241897467e-06,3.527616072337374e-06,6.672341970622293e-05,5.676348939017791e-06,0.22768269200000013
6.360576923,3.819293994187979e-06,2.9763081634167714e-06,2.275482437218846e-06,3.5292252419067903e-06,6.685861626508162e-05,5.675558831005225e-06,0.2282019230000003
6.361096154,3.819574992539527e-06,2.969072004359756e-06,2.271013044159498e-06,3.528348753101651e-06,6.687170524014779e-05,5.675351761430392e-06,0.22872115400000048
6.361615385,3.81998722329362e-06,2.965504979270204e-06,2.255893274244636e-06,3.511787537758e-06,6.724644711647015e-05,5.676660098812442e-06,0.22924038500000066
6.362134615,3.820975747258492e-06,2.96540695141754e-06,2.2440791907148403e-06,3.5020880776138183e-06,6.78518004942544e-05,5.680258058961802e-06,0.22975961500000075
6.362653846,3.821097051643932e-06,2.9582871620364727e-06,2.242170880454021e-06,3.5005393144473485e-06,6.818848050640866e-05,5.684490131229519e-06,0.23027884600000004
6.363173077,3.8193353023275785e-06,2.9426257798040583e-06,2.241264740261304e-06,3.49977885366409e-06,6.821599120763868e-05,5.686539850414488e-06,0.2307980770000002
6.363692308,3.817077303455648e-06,2.924358821494633e-06,2.23390624275047e-06,3.4950073315877947e-06,6.819803952426453e-05,5.685726035201734e-06,0.2313173080000004
6.364211538,3.814232196631044e-06,2.906420718474064e-06,2.2187829429752784e-06,3.4869437634229795e-06,6.826586734983587e-05,5.683634295606674e-06,0.23183653800000048
6.364730769,3.8144162579522e-06,2.8910909028645745e-06,2.197310552975018e-06,3.493446124744201e-06,6.843535864463252e-05,5.68247141994559e-06,0.23235576900000066
6.36525,3.819135662382102e-06,2.88324224751144e-06,2.179020062923181e-06,3.527692729289698e-06,6.870811146035784e-05,5.683887909976443e-06,0.23287499999999994
6.365769231,3.820997113762733e-06,2.8825968470624185e-06,2.1776685607055837e-06,3.5722130636796664e-06,6.90302630372973e-05,5.686443119701791e-06,0.23339423100000012
6.366288462,3.820860364829651e-06,2.882537796205817e-06,2.190319269252787e-06,3.599021709817648e-06,6.926599342998589e-05,5.68665026528489e-06,0.2339134620000003
6.366807692,3.820532718744513e-06,2.884069823179805e-06,2.204512318635663e-06,3.605878518580676e-06,6.93308184692991e-05,5.684967021021914e-06,0.2344326920000004
6.367326923,3.818944518584881e-06,2.8896560167062105e-06,2.2170492164023863e-06,3.609335870398642e-06,6.929759121569388e-05,5.6836200422388e-06,0.23495192300000056
6.367846154,3.824513055804878e-06,2.8923346520634544e-06,2.2304905694191933e-06,3.618029403665668e-06,6.928697049883177e-05,5.68314107712436e-06,0.23547115400000074
6.368365385,3.835726817088689e-06,2.890988120994804e-06,2.244530870379594e-06,3.629957628069797e-06,6.932485878853284e-05,5.684428932064859e-06,0.23599038500000002
6.368884615,3.845598399773034e-06,2.8939393584116904e-06,2.254423282909356e-06,3.640970746619881e-06,6.936607276164606e-05,5.6865858090297575e-06,0.23650961500000012
6.369403846,3.85782627166156e-06,2.8987062091116337e-06,2.2590617808733807e-06,3.646377210820739e-06,6.938775640871652e-05,5.688028758693509e-06,0.2370288460000003
6.369923077,3.877653164815749e-06,2.8986744009640897e-06,2.263417467264098e-06,3.643463030032744e-06,6.940306476637886e-05,5.689114912989452e-06,0.23754807700000047
6.370442308,3.909031945231967e-06,2.903233359181339e-06,2.2673717490009355e-06,3.652287846333653e-06,6.942439101291715e-05,5.690388169449837e-06,0.23806730800000064
6.370961538,3.941684362419024e-06,2.9171358049546653e-06,2.2638617342725214e-06,3.698061323485591e-06,6.944169593593701e-05,5.689891882140524e-06,0.23858653800000074
6.371480769,3.953667486337991e-06,2.9276184319315166e-06,2.2553435471049105e-06,3.752994670485753e-06,6.944232005555266e-05,5.684001830857542e-06,0.23910576900000002
6.372,3.94694718329501e-06,2.928894683468079e-06,2.2520027115815186e-06,3.7778351935213913e-06,6.943887295971186e-05,5.674406794980707e-06,0.2396250000000002
6.372519231,3.942946215907097e-06,2.927535259444888e-06,2.254308910891937e-06,3.7817821957051607e-06,6.942965668770664e-05,5.6657714682661135e-06,0.24014423100000037
6.373038462,3.943801508054926e-06,2.9273196613601783e-06,2.25819668385332e-06,3.777648562147077e-06,6.93622729842026e-05,5.659201818946476e-06,0.24066346200000055
6.373557692,3.942398384015847e-06,2.9277713162924884e-06,2.2622004882882023e-06,3.770577427189624e-06,6.915972966116664e-05,5.6548963527542855e-06,0.24118269200000064
6.374076923,3.945052987411881e-06,2.9335968129426613e-06,2.2644417669637096e-06,3.771575657399513e-06,6.875831001250458e-05,5.653525343172867e-06,0.24170192299999993
6.374596154,3.951298244036296e-06,2.9458953386112934e-06,2.2635341101383983e-06,3.7740354668902544e-06,6.818392889362415e-05,5.653716834136071e-06,0.2422211540000001
6.375115385,3.953541240227911e-06,2.954716208294876e-06,2.2601364020002637e-06,3.7856338361131536e-06,6.758567700113276e-05,5.652633583969671e-06,0.24274038500000028
6.375634615,3.953549897523011e-06,2.95848978414235e-06,2.2573296416818084e-06,3.843419621174969e-06,6.712563480404348e-05,5.648081598874514e-06,0.24325961500000037
6.376153846,3.953551590470455e-06,2.961330421600871e-06,2.2568646230602296e-06,3.973289345043791e-06,6.686630343495092e-05,5.639224503951929e-06,0.24377884600000055
6.376673077,3.953448687902642e-06,2.9607490177067013e-06,2.25572217986608e-06,4.167603564651919e-06,6.678586287987686e-05,5.627444559903634e-06,0.24429807700000072
6.377192308,3.95325550185194e-06,2.959627371506169e-06,2.2503097893127704e-06,4.37323852311767e-06,6.684165274908482e-05,5.617585364687429e-06,0.244817308
6.377711538,3.9529232523117335e-06,2.9621345881634694e-06,2.2459956509482537e-06,4.530231052408679e-06,6.689464617971083e-05,5.6142633207906025e-06,0.2453365380000001
6.378230769,3.953548178925648e-06,2.964590033790753e-06,2.2484257014006795e-06,4.630631906325098e-06,6.670774843492171e-05,5.614293493770262e-06,0.24585576900000028
6.37875,3.952915085229827e-06,2.9639383119510285e-06,2.2499521317866185e-06,4.707926755145425e-06,6.625623360200571e-05,5.611296708813516e-06,0.24637500000000045
6.379269231,3.95443977085508e-06,2.9600582556537164e-06,2.2508111901401707e-06,4.796253315829794e-06,6.57771958757705e-05,5.607472371448134e-06,0.24689423100000063
6.379788462,3.970107566187098e-06,2.9527868309175173e-06,2.2565259004643247e-06,4.898280661997615e-06,6.54291587061216e-05,5.606965853428609e-06,0.24741346199999992
6.380307692,3.9938504788407405e-06,2.946456100812228e-06,2.258923312670819e-06,4.970083393431429e-06,6.519756119198032e-05,5.6062541341292605e-06,0.247932692
6.380826923,4.007279356677584e-06,2.9483806902896108e-06,2.2591572270993505e-06,4.9855511251260205e-06,6.502117501937055e-05,5.602438957589721e-06,0.24845192300000019
6.381346154,4.011560452384587e-06,2.955771063269906e-06,2.260664740571484e-06,4.982490244343306e-06,6.486905018817583e-05,5.59846947216363e-06,0.24897115400000036
6.381865385,4.0147995331406346e-06,2.9592442581293045e-06,2.2591339168029524e-06,4.985532359096885e-06,6.476076851584612e-05,5.596794631340612e-06,0.24949038500000054
6.382384615,4.021944644826042e-06,2.9547368024723388e-06,2.2593369500156795e-06,4.984542518787148e-06,6.470197001907584e-05,5.596506962004869e-06,0.25000961500000063
6.382903846,4.037208465522838e-06,2.941399167492676e-06,2.2640166947633093e-06,4.984727586343613e-06,6.465890836265021e-05,5.596491151243583e-06,0.2505288459999999
6.383423077,4.044830589791581e-06,2.928380567926417e-06,2.271952793441407e-06,4.9819312477122286e-06,6.460542004497115e-05,5.596806948137195e-06,0.2510480770000001
6.383942308,4.035606549799787e-06,2.934037067672194e-06,2.2863593567368007e-06,4.973202765664861e-06,6.45508815963666e-05,5.597214243828948e-06,0.25156730800000027
6.384461538,4.0308581586409175e-06,2.961237159660068e-06,2.301941809579576e-06,4.987801388893243e-06,6.454136975987034e-05,5.596757212318292e-06,0.25208653800000036
6.384980769,4.035770452692397e-06,2.993157374335024e-06,2.306569229465229e-06,5.021126800559455e-06,6.456184749901798e-05,5.594923302335461e-06,0.25260576900000054
6.3855,4.037986793490152e-06,3.0144314954935084e-06,2.3039996322915435e-06,5.0381674480352365e-06,6.448747269657721e-05,5.591873877161752e-06,0.2531250000000007
6.386019231,4.040569003482051e-06,3.0232219543919365e-06,2.3025963464836e-06,5.042826920496581e-06,6.424763104030665e-05,5.587728160442981e-06,0.253644231
6.386538462,4.043797144567324e-06,3.026007963376532e-06,2.3081783858564088e-06,5.048924891084164e-06,6.39126842660704e-05,5.583181710975082e-06,0.2541634620000002
6.387057692,4.043776849471841e-06,3.0249163148957112e-06,2.3323279165611264e-06,5.058224297583515e-06,6.360013451395664e-05,5.5800421659735165e-06,0.25468269200000027
6.387576923,4.045687232588053e-06,3.0157896166947923e-06,2.365391972725335e-06,5.075389715742179e-06,6.340261245583153e-05,5.5792246804068295e-06,0.25520192300000044
6.388096154,4.048113395717583e-06,3.001932490035798e-06,2.386331335496787e-06,5.091244451886324e-06,6.335166061711582e-05,5.579714954622142e-06,0.2557211540000006
6.388615385,4.044696279190494e-06,2.998526259246286e-06,2.3965872812154005e-06,5.0977573685245625e-06,6.334782103044032e-05,5.580572632519494e-06,0.2562403849999999
6.389134615,4.040117462065665e-06,3.012385780059912e-06,2.406375817679104e-06,5.0968070215775545e-06,6.320167357348289e-05,5.58163584524346e-06,0.256759615
6.389653846,4.040001551940702e-06,3.0326074445529997e-06,2.421399646243316e-06,5.086923596053212e-06,6.291511798978337e-05,5.582340282364328e-06,0.25727884600000017
6.390173077,4.044240721979048e-06,3.048246301800835e-06,2.444523276438259e-06,5.080914335783912e-06,6.272338550472865e-05,5.5823713124227984e-06,0.25779807700000035
6.390692308,4.0498396266071245e-06,3.0585241870643213e-06,2.46750653677319e-06,5.083842314506983e-06,6.269873244398649e-05,5.582475764987112e-06,0.2583173080000005
6.391211538,4.048660233749323e-06,3.0668731693249043e-06,2.4728325655555547e-06,5.075398181215948e-06,6.268808228109728e-05,5.581711118375616e-06,0.2588365380000006
6.391730769,4.045918545163397e-06,3.0743863650830903e-06,2.4602058694167874e-06,5.053729443294106e-06,6.263818313227153e-05,5.576950901994366e-06,0.2593557689999999
6.39225,4.0528378685616905e-06,3.0795526997876536e-06,2.4553877406448117e-06,5.037140474536499e-06,6.261102960194705e-05,5.569876556056793e-06,0.2598750000000001
6.392769231,4.059535873589202e-06,3.0803262314189924e-06,2.463208173100622e-06,5.031317450128942e-06,6.26109644134676e-05,5.567733935525971e-06,0.26039423100000025
6.393288462,4.057344274687896e-06,3.077343791516899e-06,2.4562903129331246e-06,5.030902990972363e-06,6.258291505207795e-05,5.567419938286291e-06,0.26091346200000043
6.393807692,4.050689817719488e-06,3.077769885275949e-06,2.438390205032405e-06,5.034395210389834e-06,6.247759663413417e-05,5.555156250371977e-06,0.2614326920000005
6.394326923,4.041805997502264e-06,3.0856081784535425e-06,2.4331121568101e-06,5.05469410990666e-06,6.228539830927643e-05,5.528131211216332e-06,0.2619519230000007
6.394846154,4.036692919563297e-06,3.095481992142329e-06,2.433470100727984e-06,5.115591795552912e-06,6.206537149584588e-05,5.497228193133428e-06,0.262471154
6.395365385,4.037082923473255e-06,3.103878479249933e-06,2.431788114318057e-06,5.198052896609935e-06,6.192874130918089e-05,5.477363506607089e-06,0.26299038500000016
6.395884615,4.031043602682236e-06,3.1105156698208098e-06,2.433349734476728e-06,5.246156350793536e-06,6.196747975279763e-05,5.475446909517275e-06,0.26350961500000025
6.396403846,4.015518571348349e-06,3.115013537958943e-06,2.437751288121187e-06,5.255403726225206e-06,6.224172256312088e-05,5.469883204846522e-06,0.26402884600000043
6.396923077,4.001831437705186e-06,3.1191603868616517e-06,2.4420185111844342e-06,5.25565316448112e-06,6.27915543274035e-05,5.436985250828109e-06,0.2645480770000006
6.397442308,3.997703650087196e-06,3.123042028912576e-06,2.444789107038785e-06,5.254869723214969e-06,6.353072883803703e-05,5.401579933811321e-06,0.2650673079999999
6.397961538,3.998893612344199e-06,3.124367413990303e-06,2.4457006593076653e-06,5.254934531768479e-06,6.421889286734575e-05,5.390252565028433e-06,0.265586538
6.398480769,3.982832298392943e-06,3.1225566784086978e-06,2.445699975885631e-06,5.259936191059635e-06,6.466169547651284e-05,5.390888138072817e-06,0.26610576900000016
6.399,3.9343561539173465e-06,3.118523738713708e-06,2.445781936902477e-06,5.276406755562533e-06,6.483080941519947e-05,5.393149013218796e-06,0.26662500000000033
6.399519231,3.8845713733682224e-06,3.113248274399551e-06,2.445767288751104e-06,5.303649413581824e-06,6.48316632273561e-05,5.395267523297395e-06,0.2671442310000005
6.400038462,3.870182249791121e-06,3.105398488057205e-06,2.4467178947327184e-06,5.322634564270074e-06,6.495270378932352e-05,5.395824641056164e-06,0.2676634620000007
6.400557692,3.886721068959182e-06,3.088788918566069e-06,2.4482502604364997e-06,5.323393361550369e-06,6.563624653072795e-05,5.3957204492481474e-06,0.2681826919999999
6.401076923,3.91378274604168e-06,3.0590880026567885e-06,2.44325420814883e-06,5.317245269682333e-06,6.697345410297455e-05,5.395952903870498e-06,0.26870192300000006
6.401596154,3.935676437107279e-06,3.0259845770766533e-06,2.43218055607925e-06,5.313934668656791e-06,6.834601395380687e-05,5.398152908189224e-06,0.26922115400000024
6.402115385,3.947923700815926e-06,3.0055045763831498e-06,2.427648088802859e-06,5.313274965821615e-06,6.912239196662429e-05,5.399943197583356e-06,0.2697403850000004
6.402634615,3.950356440028671e-06,3.001299153862433e-06,2.4283623093184635e-06,5.313124161868382e-06,6.934474370698943e-05,5.399261963427982e-06,0.2702596150000005
6.403153846,3.936091884500915e-06,3.00504743361694e-06,2.427847769281041e-06,5.311905952465187e-06,6.936714961552799e-05,5.399081926005343e-06,0.2707788460000007
6.403673077,3.9139336961938445e-06,3.0090923238043737e-06,2.4368430581095504e-06,5.312883513557448e-06,6.936376898951678e-05,5.399285729240188e-06,0.27129807699999997
6.404192308,3.900709154650327e-06,3.0117453761128355e-06,2.4603694561243893e-06,5.318481385167251e-06,6.936688612293878e-05,5.399281466128426e-06,0.27181730800000015
6.404711538,3.895187698273841e-06,3.014563290819199e-06,2.492918621745577e-06,5.3180622789756885e-06,6.938248652921689e-05,5.396900159673076e-06,0.27233653800000024
6.405230769,3.889115536667798e-06,3.018703431927412e-06,2.5267117678808443e-06,5.306771628267504e-06,6.93872920719123e-05,5.383492533189101e-06,0.2728557690000004
6.40575,3.874444077616002e-06,3.023806664672323e-06,2.547145883157131e-06,5.300323539650996e-06,6.933294237269296e-05,5.366359127789291e-06,0.2733750000000006
6.406269231,3.848475168191368e-06,3.028629535103597e-06,2.5498276332224985e-06,5.306569435640854e-06,6.917015658718181e-05,5.36296902755147e-06,0.2738942309999999
6.406788462,3.817455125144336e-06,3.033244335992045e-06,2.542807720568764e-06,5.308928708791513e-06,6.88741024549102e-05,5.369686002727825e-06,0.27441346200000005
6.407307692,3.78502043918324e-06,3.0408423181432216e-06,2.5310065055450477e-06,5.291479374366623e-06,6.848780691444337e-05,5.374055651990531e-06,0.27493269200000015
6.407826923,3.7548070684797394e-06,3.0550300538868334e-06,2.5162473920982924e-06,5.260330608719199e-06,6.816022831001056e-05,5.374162578848849e-06,0.2754519230000003
6.408346154,3.736258583345326e-06,3.0721801343288272e-06,2.505467662728882e-06,5.236167660751878e-06,6.803839403147629e-05,5.373926355223507e-06,0.2759711540000005
6.408865385,3.728136949550998e-06,3.082315821402752e-06,2.505464073098861e-06,5.229836020545947e-06,6.804250160919535e-05,5.3736348295412216e-06,0.27649038500000067
6.409384615,3.737111098415048e-06,3.083773415834138e-06,2.5091077074533955e-06,5.234581805671009e-06,6.795271798611235e-05,5.371451262658151e-06,0.2770096149999999
6.409903846,3.777781710419576e-06,3.0834095015749592e-06,2.5055245092616348e-06,5.241408168121275e-06,6.776194953492927e-05,5.370199451352939e-06,0.27752884600000005
6.410423077,3.8214337179732025e-06,3.083431358334212e-06,2.498821032677089e-06,5.235339795204535e-06,6.763025840427084e-05,5.370464258718663e-06,0.2780480770000002
6.410942308,3.838202711125126e-06,3.0843299847436773e-06,2.4979190002910004e-06,5.2063594051495e-06,6.759599251415243e-05,5.369521718730917e-06,0.2785673080000004
6.411461538,3.842065490156278e-06,3.0904564000863924e-06,2.499073819290007e-06,5.179344634302379e-06,6.759795614976747e-05,5.369356042223113e-06,0.2790865380000005
6.411980769,3.846243336865296e-06,3.0977931042475723e-06,2.498592259132777e-06,5.175665093186812e-06,6.760195644991056e-05,5.370321624186456e-06,0.27960576900000067
6.4125,3.855758690175785e-06,3.0973078755176e-06,2.504926850202826e-06,5.179099677882654e-06,6.76022724493864e-05,5.370491485266985e-06,0.28012499999999996
6.413019231,3.874331616618634e-06,3.09324028940363e-06,2.521167037535389e-06,5.178718933254906e-06,6.760141841032816e-05,5.370539500194023e-06,0.28064423100000013
6.413538462,3.8896773011353134e-06,3.0933726278941185e-06,2.5380188598324064e-06,5.178536136762567e-06,6.760488397892974e-05,5.369597453681191e-06,0.2811634620000003
6.414057692,3.8929557822588445e-06,3.097608147635808e-06,2.5478993701826858e-06,5.179234413968079e-06,6.76151298668357e-05,5.368969581428732e-06,0.2816826920000004
6.414576923,3.884818418542864e-06,3.105674479399826e-06,2.551708165108881e-06,5.185536184359525e-06,6.762023644971534e-05,5.370973476010786e-06,0.2822019230000006
6.415096154,3.868486516583588e-06,3.119766627680167e-06,2.553680932171326e-06,5.194537523056733e-06,6.757034289113633e-05,5.369893081291125e-06,0.28272115400000075
6.415615385,3.856723985054772e-06,3.1393473249951124e-06,2.555973073562123e-06,5.1979398626097e-06,6.741122597490931e-05,5.366638021669695e-06,0.28324038500000004
6.416134615,3.855784992291975e-06,3.1576362614515357e-06,2.558892222764197e-06,5.197992864610886e-06,6.716162922950036e-05,5.366650531300319e-06,0.28375961500000013
6.416653846,3.858926398705855e-06,3.1723134475450804e-06,2.562037807260711e-06,5.197826168321186e-06,6.68824405801982e-05,5.359754695512042e-06,0.2842788460000003
6.417173077,3.869048160992925e-06,3.1903928793150875e-06,2.5646449709984264e-06,5.199252875626517e-06,6.661779765833232e-05,5.350157481813868e-06,0.2847980770000005
6.417692308,3.885614857770413e-06,3.21854929186124e-06,2.5660675583977355e-06,5.196243034906586e-06,6.643653174542508e-05,5.3513752030407085e-06,0.28531730800000066
6.418211538,3.88570567037642e-06,3.258714430081697e-06,2.56652245621659e-06,5.178962168211364e-06,6.642207602366174e-05,5.347046286016016e-06,0.28583653800000075
6.418730769,3.864631772694995e-06,3.300987558350691e-06,2.566391515768452e-06,5.163317723238786e-06,6.644047061835883e-05,5.335322699182134e-06,0.28635576900000004
6.41925,3.843725295187545e-06,3.3238855980091265e-06,2.565491290815097e-06,5.169481399402482e-06,6.612331149552918e-05,5.335247034197292e-06,0.2868750000000002
6.419769231,3.8269378569590326e-06,3.319824145663875e-06,2.563980836873118e-06,5.181342248546477e-06,6.541251317528305e-05,5.337227756131734e-06,0.2873942310000004
6.420288462,3.815477881946075e-06,3.3067401750887366e-06,2.563708151373044e-06,5.182406284672141e-06,6.472710463835358e-05,5.332780910239205e-06,0.28791346200000056
6.420807692,3.816057205012588e-06,3.3013562861503825e-06,2.564797339899305e-06,5.183928418410285e-06,6.435770385980331e-05,5.331025125802099e-06,0.28843269200000066
6.421326923,3.816532687933106e-06,3.301356434586345e-06,2.564062819031208e-06,5.188880048213727e-06,6.420875797830478e-05,5.3310273074842245e-06,0.28895192299999994
6.421846154,3.822643959999569e-06,3.300851491330093e-06,2.5635035361695817e-06,5.188887143008471e-06,6.411680464689282e-05,5.33005032826484e-06,0.2894711540000001
6.422365385,3.844619958373958e-06,3.302986597067966e-06,2.5686515707089297e-06,5.184397787476744e-06,6.39999296691948e-05,5.329749434503019e-06,0.2899903850000003
6.422884615,3.8586552565424165e-06,3.3085736013009413e-06,2.575757896561768e-06,5.178501958569535e-06,6.385063166917849e-05,5.32970525922524e-06,0.2905096150000004
6.423403846,3.859283468749176e-06,3.312730538896319e-06,2.577297706160668e-06,5.175441262743904e-06,6.372616128867165e-05,5.329172276295531e-06,0.29102884600000056
6.423923077,3.860480173908086e-06,3.316774640520269e-06,2.5737733068539504e-06,5.175369420251215e-06,6.365989326611008e-05,5.328657385732757e-06,0.29154807700000074
6.424442308,3.8601002944871135e-06,3.322257523222412e-06,2.572733360478908e-06,5.172521377886084e-06,6.363310244044517e-05,5.328806605480954e-06,0.292067308
6.424961538,3.861979808080899e-06,3.3263225428399056e-06,2.575846093280573e-06,5.162295661329599e-06,6.362528121588185e-05,5.328884038480867e-06,0.2925865380000001
6.425480769,3.872166100826581e-06,3.324180883299134e-06,2.5707874631571297e-06,5.144288964030486e-06,6.363371580386462e-05,5.328679979759058e-06,0.2931057690000003
6.426,3.881925190578086e-06,3.3128023388815467e-06,2.55535394928886e-06,5.139143942728181e-06,6.365728078567801e-05,5.328835018238161e-06,0.29362500000000047
6.426519231,3.8865454532517725e-06,3.3001128617531037e-06,2.54385718130745e-06,5.160456502288646e-06,6.367904178410327e-05,5.328108736394154e-06,0.29414423100000064
6.427038462,3.888287456360798e-06,3.2948518406265187e-06,2.539204448242122e-06,5.179043651567516e-06,6.367659654769593e-05,5.325083464054461e-06,0.29466346199999993
6.427557692,3.888679446897409e-06,3.2980079930786323e-06,2.5399840129245816e-06,5.179732185424703e-06,6.364563718452253e-05,5.321494517765192e-06,0.295182692
6.428076923,3.888518014725793e-06,3.3080224965316214e-06,2.5513360672335152e-06,5.179188984162427e-06,6.360527120884707e-05,5.320147073788286e-06,0.2957019230000002
6.428596154,3.883802647380404e-06,3.320248543946816e-06,2.5677235055758664e-06,5.178206903811127e-06,6.357848691778771e-05,5.320140335929486e-06,0.2962211540000004
6.429115385,3.875172635547346e-06,3.329363806184775e-06,2.5800228067881428e-06,5.174586988885886e-06,6.356940214520041e-05,5.319220236595349e-06,0.29674038500000055
6.429634615,3.876998711870436e-06,3.338426208777703e-06,2.5872227157067667e-06,5.173203335526477e-06,6.356837740860881e-05,5.318757262262424e-06,0.29725961500000064
6.430153846,3.890336243061397e-06,3.348906878477504e-06,2.588144662581376e-06,5.176340864639164e-06,6.356911156965805e-05,5.319534755738539e-06,0.29777884599999993
6.430673077,3.8924817304031724e-06,3.351292206733803e-06,2.58622508119593e-06,5.190329598528256e-06,6.357012936491523e-05,5.319779304635369e-06,0.2982980770000001
6.431192308,3.878043476444753e-06,3.346064476083375e-06,2.5862431018924905e-06,5.200365188551749e-06,6.357147522005576e-05,5.320026206945945e-06,0.2988173080000003
6.431711538,3.862737443813657e-06,3.3427853826938497e-06,2.5806440914517064e-06,5.189198617045586e-06,6.357177786507344e-05,5.321057030982464e-06,0.2993365380000004
6.432230769,3.854428111754459e-06,3.342373897911969e-06,2.569953573798058e-06,5.177768214675155e-06,6.356895697827466e-05,5.319910363064491e-06,0.29985576900000055
6.43275,3.850899974918903e-06,3.3412926770179504e-06,2.569496888754519e-06,5.180232489506647e-06,6.356556832700622e-05,5.316109023535974e-06,0.3003750000000007
6.433269231,3.851009126250043e-06,3.3380236405506115e-06,2.5890637963644324e-06,5.181500013224156e-06,6.356538434412019e-05,5.313841429903752e-06,0.300894231
6.433788462,3.853555501289646e-06,3.33459003847878e-06,2.628845740004464e-06,5.176486003757979e-06,6.356754758219338e-05,5.314061699630271e-06,0.3014134620000002
6.434307692,3.852174858493391e-06,3.332778727203322e-06,2.6693221582965222e-06,5.171123364581974e-06,6.356876017432583e-05,5.31521562951014e-06,0.3019326920000003
6.434826923,3.845772525006948e-06,3.331642543998164e-06,2.685526008053109e-06,5.164649564242605e-06,6.356860542067587e-05,5.316702696875482e-06,0.30245192300000046
6.435346154,3.842143710767965e-06,3.3305367131418897e-06,2.6857823798673413e-06,5.157574937517667e-06,6.35680682417497e-05,5.318505468557524e-06,0.30297115400000063
6.435865385,3.841835172896909e-06,3.330384973982688e-06,2.685810871438033e-06,5.153026993697484e-06,6.355240715140633e-05,5.317953950704819e-06,0.3034903849999999
6.436384615,3.842172519263087e-06,3.333838587936008e-06,2.6772093197579878e-06,5.149043601075771e-06,6.349366898031167e-05,5.289069713331804e-06,0.304009615
6.436903846,3.842951373435613e-06,3.3400646613227395e-06,2.6632299445103856e-06,5.1427249614091865e-06,6.341106661729323e-05,5.211537455044185e-06,0.3045288460000002
6.437423077,3.841700307198555e-06,3.342065389048913e-06,2.657368763587273e-06,5.129856527856677e-06,6.336955491517735e-05,5.16676623640763e-06,0.30504807700000036
6.437942308,3.844529524680512e-06,3.3404774137865147e-06,2.657151898803846e-06,5.113999169123537e-06,6.337521828960001e-05,5.173955015559459e-06,0.30556730800000054
6.438461538,3.854969012723885e-06,3.3407867490966278e-06,2.6629274097606192e-06,5.110632948197515e-06,6.337830457829938e-05,5.02541969629646e-06,0.30608653800000063
6.438980769,3.857887677211793e-06,3.337230966183008e-06,2.6732441826576792e-06,5.112303908221297e-06,6.335010975719058e-05,4.727575623326837e-06,0.3066057689999999
6.4395,3.848164989189166e-06,3.331089930388163e-06,2.678969117886725e-06,5.106172741251444e-06,6.327726419938982e-05,4.596432560891583e-06,0.3071250000000001
6.440019231,3.842904075373525e-06,3.33037298484209e-06,2.6804789624692754e-06,5.105779969667934e-06,6.315704716445159e-05,4.677586370767177e-06,0.30764423100000027
6.440538462,3.842437026065666e-06,3.3307729899873225e-06,2.6815841066797605e-06,5.10147652023326e-06,6.301736642329353e-05,4.806494359385638e-06,0.30816346200000044
6.441057692,3.83050648092381e-06,3.3302099760513227e-06,2.6852997881469158e-06,5.086405684938136e-06,6.290193426987204e-05,4.910125384377806e-06,0.30868269200000054
6.441576923,3.811948256285663e-06,3.330460566534085e-06,2.6932030879294444e-06,5.084961917472412e-06,6.282950272937482e-05,4.946600185560558e-06,0.3092019230000007
6.442096154,3.7948137894097785e-06,3.3306153897950897e-06,2.7008503964565125e-06,5.080025540625885e-06,6.278793963243415e-05,4.946450472001164e-06,0.309721154
6.442615385,3.768516958121276e-06,3.329613645085556e-06,2.7045915757517934e-06,5.060200170529821e-06,6.27627721178256e-05,4.966583860948837e-06,0.3102403850000002
6.443134615,3.727197087713017e-06,3.332274561471492e-06,2.7050581083095124e-06,5.05759339043666e-06,6.274989029007672e-05,4.999701691097955e-06,0.31075961500000027
6.443653846,3.684539731298428e-06,3.3454198198594265e-06,2.704745380158575e-06,5.066021463201635e-06,6.27494276312894e-05,5.0255160583272935e-06,0.31127884600000044
6.444173077,3.6634007084479538e-06,3.35868788775951e-06,2.704563968447876e-06,5.0634149341805085e-06,6.275372106758708e-05,5.038414754462098e-06,0.3117980770000006
6.444692308,3.666136278755665e-06,3.3592929100579507e-06,2.7011402394062144e-06,5.060101845414123e-06,6.2742523086451e-05,5.040574412736155e-06,0.3123173079999999
6.445211538,3.6691603806261088e-06,3.350402787024044e-06,2.6927968871454624e-06,5.060113080205595e-06,6.267933235482312e-05,5.040183073702844e-06,0.312836538
6.445730769,3.6611132298592345e-06,3.338845583455596e-06,2.6846385288501747e-06,5.0568371044630165e-06,6.252180081065549e-05,5.036469400719065e-06,0.3133557690000002
6.44625,3.651891694286769e-06,3.329399875661257e-06,2.68155133092628e-06,5.056703424225149e-06,6.227579543774571e-05,5.024274903638672e-06,0.31387500000000035
6.446769231,3.6470652358698617e-06,3.3246323614100324e-06,2.6817125258691952e-06,5.058383440158232e-06,6.202543279704132e-05,5.018982436962687e-06,0.3143942310000005
6.447288462,3.644796011388448e-06,3.3228601357870536e-06,2.6818026280398246e-06,5.0516731272154495e-06,6.185677241393143e-05,5.013940759439405e-06,0.3149134620000007
6.447807692,3.6391542247882258e-06,3.321666347491697e-06,2.68137359653744e-06,5.039064702453153e-06,6.178205087844333e-05,4.935116935588828e-06,0.3154326919999999
6.448326923,3.6179261502824337e-06,3.319769315868288e-06,2.680106851056837e-06,5.026525410660788e-06,6.176325500110819e-05,4.784324552667024e-06,0.3159519230000001
6.448846154,3.575133741625864e-06,3.316337398105223e-06,2.67870506757939e-06,5.01981298899121e-06,6.176264594381548e-05,4.691869417722133e-06,0.31647115400000025
6.449365385,3.5192394045073853e-06,3.311499850940849e-06,2.6787660192240505e-06,5.0204647906716565e-06,6.175804526232529e-05,4.684867064481552e-06,0.31699038500000043
6.449884615,3.4713684442053096e-06,3.3067939726778885e-06,2.678299746398062e-06,5.021232983841716e-06,6.172761422042069e-05,4.675650218121477e-06,0.3175096150000005
6.450403846,3.450196657572211e-06,3.3050394814986166e-06,2.677437743336312e-06,5.021019518179682e-06,6.16020425306101e-05,4.653861025877033e-06,0.3180288460000007
6.450923077,3.4482024837589653e-06,3.3079560645601304e-06,2.6806574225750574e-06,5.020927172047574e-06,6.118579953177137e-05,4.646279855743719e-06,0.318548077
6.451442308,3.4479245220411936e-06,3.3094918642139846e-06,2.6869661940790547e-06,5.020400434967568e-06,6.01956672877057e-05,4.645944338962238e-06,0.31906730800000016
6.451961538,3.4483073073005464e-06,3.3059817122574416e-06,2.691674409584515e-06,5.021268039156248e-06,5.8595139231438144e-05,4.646145613392445e-06,0.31958653800000025
6.452480769,3.447800290298616e-06,3.3055387892006565e-06,2.6950903723161864e-06,5.020910973568668e-06,5.684986248379731e-05,4.643688855156393e-06,0.32010576900000043
6.453,3.4436400300009877e-06,3.307538732670043e-06,2.69894958906041e-06,5.019630477560322e-06,5.556987766417479e-05,4.630361916449309e-06,0.3206250000000006
6.453519231,3.441364384057628e-06,3.3072001112017577e-06,2.7002873632331405e-06,5.019773771389401e-06,5.496670097823799e-05,4.594479638515779e-06,0.3211442309999999
6.454038462,3.442429800089061e-06,3.307337934112252e-06,2.698504523944235e-06,5.0186093183127074e-06,5.483374410046263e-05,4.505926783701562e-06,0.32166346200000007
6.454557692,3.4469054681902477e-06,3.307189365663676e-06,2.6960068230757645e-06,5.019036125310845e-06,5.483285919343474e-05,4.318829534616118e-06,0.32218269200000016
6.455076923,3.4491328161786005e-06,3.309281869022304e-06,2.689824716392208e-06,5.022917838901149e-06,5.467994469508259e-05,4.062942282479409e-06,0.32270192300000033
6.455596154,3.4466508151952834e-06,3.3174226669506328e-06,2.6704002900303e-06,5.022662874327539e-06,5.430905176550853e-05,3.914168624527032e-06,0.3232211540000005
6.456115385,3.44715097300677e-06,3.325332579893132e-06,2.6336070016053727e-06,5.018439529317874e-06,5.394879617891202e-05,3.912536063268847e-06,0.3237403850000007
6.456634615,3.444269961241622e-06,3.3240048476138047e-06,2.599585241690684e-06,5.017263207404286e-06,5.380072314802146e-05,3.8032762538543647e-06,0.3242596149999999
6.457153846,3.430742328291767e-06,3.3085104320636074e-06,2.5881754277275187e-06,5.017516815866658e-06,5.3775798102152806e-05,3.5126415823258344e-06,0.32477884600000007
6.457673077,3.418735035382003e-06,3.275242794391072e-06,2.5892420361633784e-06,5.015956667257969e-06,5.374749506426574e-05,3.280677444522368e-06,0.32529807700000024
6.458192308,3.4181680946415417e-06,3.2253608290779158e-06,2.5963126843033817e-06,5.01528264820653e-06,5.3492504758930646e-05,3.2179707955127217e-06,0.3258173080000004
6.458711538,3.420345920302456e-06,3.172662115724116e-06,2.6080619106409737e-06,5.015441043416264e-06,5.2504862063460585e-05,3.216300621684005e-06,0.3263365380000005
6.459230769,3.4199472915969856e-06,3.1341641732790926e-06,2.610490026525964e-06,5.01288818053987e-06,5.072539644022654e-05,3.215337819915888e-06,0.3268557690000007
6.45975,3.4208603973506106e-06,3.112836253729119e-06,2.615016964207789e-06,5.0077861853936525e-06,4.90071273239153e-05,3.2149516341193243e-06,0.32737499999999997
6.460269231,3.4205423680685483e-06,3.100857905671079e-06,2.6390598585305617e-06,5.00314412701498e-06,4.812635765633895e-05,3.2151414617817325e-06,0.32789423100000015
6.460788462,3.424564665873669e-06,3.094345631774577e-06,2.6660202768503777e-06,5.001174609265493e-06,4.79281939102831e-05,3.2158089470268265e-06,0.3284134620000003
6.461307692,3.436246784621214e-06,3.089852593648106e-06,2.680331470713691e-06,5.001004693356903e-06,4.79222898524989e-05,3.2146269256601367e-06,0.3289326920000004
6.461826923,3.4406386504371376e-06,3.0814108808639875e-06,2.6850178897280224e-06,5.001006255258035e-06,4.792510910484212e-05,3.213323503184427e-06,0.3294519230000006
6.462346154,3.430202925984149e-06,3.0714897314180216e-06,2.6852956212143574e-06,5.000796596689555e-06,4.792782255763912e-05,3.2119515614933487e-06,0.3299711539999999
6.462865385,3.408107455778876e-06,3.068087696729604e-06,2.684321088017536e-06,5.003238669115525e-06,4.793051306933671e-05,3.192732607028419e-06,0.33049038500000005
6.463384615,3.3979640464572463e-06,3.072508483574269e-06,2.6867547653182493e-06,5.022777829794224e-06,4.791661980889816e-05,3.1669643593838308e-06,0.33100961500000015
6.463903846,3.4182876103729458e-06,3.0797833443829693e-06,2.692214745523057e-06,5.059444594745653e-06,4.783885322580128e-05,3.1656918508769183e-06,0.3315288460000003
6.464423077,3.4372284313275474e-06,3.0882928608592947e-06,2.690069666718697e-06,5.080523234816704e-06,4.771558433335312e-05,3.1449412117786438e-06,0.3320480770000005
6.464942308,3.437720797043174e-06,3.098337066406993e-06,2.6791981209560957e-06,5.078822447525196e-06,4.761301071293487e-05,3.075507032881041e-06,0.33256730800000067
6.465461538,3.438122435345164e-06,3.1021739035368453e-06,2.6742400934344765e-06,5.081918603649604e-06,4.754515316496433e-05,3.0244869427633184e-06,0.3330865379999999
6.465980769,3.434466982945689e-06,3.0866377504526004e-06,2.6824466771982334e-06,5.088668095323812e-06,4.75027818820769e-05,3.0213577135803465e-06,0.33360576900000005
6.4665,3.4225220973812083e-06,3.055063856279308e-06,2.699991406661567e-06,5.088264154368386e-06,4.749552265216392e-05,3.026210488530082e-06,0.3341250000000002
6.467019231,3.4181622048895284e-06,3.0263256354414885e-06,2.719539837035865e-06,5.093264075247245e-06,4.747179956027677e-05,3.021139878037019e-06,0.3346442310000004
6.467538462,3.419078803939087e-06,3.011133538827279e-06,2.731853641986784e-06,5.101666341053577e-06,4.730593583993632e-05,3.014715581911989e-06,0.3351634620000006
6.468057692,3.415209692974111e-06,3.0134662674235166e-06,2.73481384929547e-06,5.102388464115869e-06,4.710074896491808e-05,3.012128579626026e-06,0.33568269200000067
6.468576923,3.417284680394889e-06,3.0325837225590816e-06,2.7341350712248225e-06,5.101901968171967e-06,4.708365082377609e-05,3.011223088751174e-06,0.33620192299999996
6.469096154,3.430390259418176e-06,3.055084820352829e-06,2.733442841434299e-06,5.100533048158586e-06,4.704340936038663e-05,3.008814718637523e-06,0.33672115400000013
6.469615385,3.440242464140669e-06,3.068081077973291e-06,2.7334314290158026e-06,5.095158136108289e-06,4.666980827074057e-05,3.0040978906458117e-06,0.3372403850000003
6.470134615,3.4400233667917343e-06,3.071399179405686e-06,2.7349481565868973e-06,5.0931103268153446e-06,4.620628347891812e-05,2.996979770128084e-06,0.3377596150000004
6.470653846,3.4398734877700507e-06,3.07099490634108e-06,2.737485961737313e-06,5.093893141717342e-06,4.6062917065178456e-05,2.9909095552603327e-06,0.3382788460000006
6.471173077,3.448920749760173e-06,3.0721400595295382e-06,2.740662456697482e-06,5.094617789767561e-06,4.621988078849493e-05,2.9901744615283264e-06,0.33879807700000075
6.471692308,3.46335112661466e-06,3.077954533768093e-06,2.747623700864982e-06,5.095375486959019e-06,4.639654007097921e-05,2.9913361687047958e-06,0.33931730800000004
6.472211538,3.475969178227292e-06,3.088861063892358e-06,2.7607247112513096e-06,5.095377021338077e-06,4.6488938917045416e-05,2.98972832667814e-06,0.33983653800000013
6.472730769,3.4846469099571035e-06,3.101077236001357e-06,2.775358890326902e-06,5.09630777649585e-06,4.658189085852848e-05,2.9840870472292567e-06,0.3403557690000003
6.47325,3.489621282736697e-06,3.108387590393349e-06,2.783408665740397e-06,5.096326827406906e-06,4.671740261357104e-05,2.974895723366937e-06,0.3408750000000005
6.473769231,3.490487747770671e-06,3.11027090503987e-06,2.782779054367952e-06,5.097438052361344e-06,4.686924752740275e-05,2.9661874371234137e-06,0.34139423100000066
6.474288462,3.485774426662349e-06,3.110884622366497e-06,2.780207796988335e-06,5.105699693579351e-06,4.698172068574912e-05,2.962212190943773e-06,0.34191346199999995
6.474807692,3.4751947779941844e-06,3.112033687302309e-06,2.783468634633284e-06,5.112323509817082e-06,4.70353150854992e-05,2.963025575765131e-06,0.34243269200000004
6.475326923,3.464623674731098e-06,3.113759428341437e-06,2.791704081788616e-06,5.10349673025244e-06,4.7089733147971886e-05,2.965406421883207e-06,0.3429519230000002
6.475846154,3.4638303071714824e-06,3.1144452797519423e-06,2.7960988661032505e-06,5.089948976253539e-06,4.730341813780115e-05,2.965435514537312e-06,0.3434711540000004
6.476365385,3.4765366248749105e-06,3.1142066635619715e-06,2.791768413968773e-06,5.086574674400934e-06,4.7995931342859134e-05,2.9610400039198745e-06,0.34399038500000056
6.476884615,3.4956273782792698e-06,3.115509545399572e-06,2.7808456344398344e-06,5.0865356335992905e-06,4.909505295804056e-05,2.957013241490338e-06,0.34450961500000066
6.477403846,3.507299208004243e-06,3.1205962635146665e-06,2.765380269155984e-06,5.086902886673698e-06,4.9830420903920166e-05,2.9572346789774303e-06,0.34502884599999994
6.477923077,3.508516028893282e-06,3.130151618491772e-06,2.7472056174316985e-06,5.086987986960102e-06,4.989778034869591e-05,2.9573722885741364e-06,0.3455480770000001
6.478442308,3.513202004902525e-06,3.140526025436401e-06,2.732202719629455e-06,5.090163462667508e-06,5.014266729524212e-05,2.9570244021022047e-06,0.3460673080000003
6.478961538,3.5333058554179403e-06,3.149814656108084e-06,2.7262368292379586e-06,5.114562728272578e-06,5.131306646840008e-05,2.963707076818837e-06,0.3465865380000004
6.479480769,3.559295349174613e-06,3.162170643747221e-06,2.7260044164660754e-06,5.146741577586821e-06,5.303700514707809e-05,2.975314349465563e-06,0.34710576900000056
6.48,3.5729481769816904e-06,3.182693248653245e-06,2.725324108886511e-06,5.161146182388524e-06,5.448882622835019e-05,2.978786271215173e-06,0.34762500000000074
6.480519231,3.5728076792620025e-06,3.211526780338977e-06,2.725776192128393e-06,5.164605574685492e-06,5.513511670861422e-05,2.9809355351418407e-06,0.348144231
6.481038462,3.558024768324065e-06,3.240906851188855e-06,2.730543509226533e-06,5.163432284109173e-06,5.502090100217501e-05,3.002491781077512e-06,0.3486634620000002
6.481557692,3.534624822670556e-06,3.263353882523004e-06,2.735440921675806e-06,5.166576891619227e-06,5.471383374786287e-05,3.0378203241275136e-06,0.3491826920000003
6.482076923,3.526719341870301e-06,3.2819237289554574e-06,2.7350613062305936e-06,5.188741143301413e-06,5.46267399831716e-05,3.0660974571457326e-06,0.34970192300000047
6.482596154,3.5264003184542023e-06,3.308430151222231e-06,2.7312544719828717e-06,5.214634748456861e-06,5.4665982269018334e-05,3.079972264648546e-06,0.35022115400000065
6.483115385,3.517991473600199e-06,3.3552915257865776e-06,2.735119257546424e-06,5.227276942654107e-06,5.465442499801146e-05,3.0816227929607725e-06,0.35074038499999993
6.483634615,3.514968741471728e-06,3.422651766179628e-06,2.752159937781524e-06,5.2332089937114205e-06,5.458370791711049e-05,3.079796170542982e-06,0.351259615
6.484153846,3.519307404875278e-06,3.492603399067734e-06,2.7686669399663933e-06,5.235860456312476e-06,5.438736288720181e-05,3.0812600484603827e-06,0.3517788460000002
6.484673077,3.5228889779135978e-06,3.5476199597650984e-06,2.77438646511996e-06,5.236433197660198e-06,5.390761703438063e-05,3.082875862559181e-06,0.3522980770000004
6.485192308,3.525158170333289e-06,3.5882061957042803e-06,2.7741491020221748e-06,5.241996652871299e-06,5.335112829611047e-05,3.083122161154613e-06,0.35281730800000055
6.485711538,3.5255960654718e-06,3.622476736632024e-06,2.772521678849953e-06,5.250829583103491e-06,5.3175066495235647e-05,3.0833618540219008e-06,0.35333653800000064
6.486230769,3.5263295968993222e-06,3.651866497014928e-06,2.7708313926564444e-06,5.25389077814836e-06,5.31695230570384e-05,3.084380972035273e-06,0.35385576899999993
6.48675,3.5312329382701925e-06,3.674028172611042e-06,2.769954027864122e-06,5.250721920757296e-06,5.27000086221542e-05,3.0830502530246474e-06,0.3543750000000001
6.487269231,3.5361965574434567e-06,3.6898958881544983e-06,2.769767647280016e-06,5.2501055808176335e-06,5.191107645838988e-05,3.073159682985645e-06,0.3548942310000003
6.487788462,3.537135680403284e-06,3.7044956341038495e-06,2.769889886987093e-06,5.25671740278952e-06,5.144911274212648e-05,3.0568216154131245e-06,0.35541346200000046
6.488307692,3.536937730372521e-06,3.7242431161142258e-06,2.772150732899741e-06,5.26485667852917e-06,5.138191756021214e-05,3.042712228994624e-06,0.35593269200000055
6.488826923,3.53550621860152e-06,3.754312817171658e-06,2.7788797347926163e-06,5.266661140251462e-06,5.136788250909554e-05,3.0358433148254446e-06,0.3564519230000007
6.489346154,3.5361244146600773e-06,3.795298635892632e-06,2.786848638212784e-06,5.260025583872556e-06,5.123832440903708e-05,3.033859739237817e-06,0.356971154
6.489865385,3.5367500556100047e-06,3.84334622976627e-06,2.7922710380158964e-06,5.243257025046612e-06,5.097454032532773e-05,3.031869376672458e-06,0.3574903850000002
6.490384615,3.5316526870743504e-06,3.895791304689091e-06,2.7941865256448093e-06,5.215038949418838e-06,5.058434424742674e-05,3.0281946744535942e-06,0.3580096150000003
6.490903846,3.534368948754418e-06,3.952080768065961e-06,2.7922773718093918e-06,5.1917156219097655e-06,5.0146758399318746e-05,3.0255524252011343e-06,0.35852884600000046
6.491423077,3.5421832240186973e-06,4.006375143474248e-06,2.795287539139432e-06,5.192073034349662e-06,4.984120845774368e-05,3.0285194904546056e-06,0.35904807700000063
6.491942308,3.542644570931051e-06,4.047784610939863e-06,2.8094474008129773e-06,5.202041445206279e-06,4.976222152350798e-05,3.0353003949152936e-06,0.3595673079999999
6.492461538,3.544933118413393e-06,4.073355826515775e-06,2.8234548145320467e-06,5.2023178565627e-06,4.978638168354115e-05,3.040194499725688e-06,0.360086538
6.492980769,3.5439732383559635e-06,4.092224697304302e-06,2.8270449082858305e-06,5.196182254296134e-06,4.977688715405619e-05,3.0414600932791405e-06,0.3606057690000002
6.4935,3.532220006318122e-06,4.111024888768304e-06,2.823579668510052e-06,5.187513382684164e-06,4.973950191247094e-05,3.0388661251448863e-06,0.36112500000000036
6.494019231,3.518602838474448e-06,4.1284967828959245e-06,2.8219589990666563e-06,5.181523339914053e-06,4.971658107434613e-05,3.034943479180686e-06,0.36164423100000054
6.494538462,3.503847744410941e-06,4.14714341357246e-06,2.8296244160071062e-06,5.183940102046301e-06,4.970677368880667e-05,3.033645614294526e-06,0.3621634620000007
6.495057692,3.483318881562899e-06,4.166547412732442e-06,2.848592837787963e-06,5.184366152341524e-06,4.969607909385639e-05,3.037553404312468e-06,0.3626826919999999
6.495576923,3.4536654734403738e-06,4.174509103773757e-06,2.874994926132457e-06,5.168863033975914e-06,4.96814469510396e-05,3.0477761097790326e-06,0.3632019230000001
6.496096154,3.418304915701234e-06,4.169396843859458e-06,2.9039871864834906e-06,5.135899937885744e-06,4.967695119241477e-05,3.0640607168432508e-06,0.36372115400000027
6.496615385,3.3952870306997293e-06,4.16560646871067e-06,2.9322765577725134e-06,5.104373258427639e-06,4.968824545506455e-05,3.0836765033303414e-06,0.36424038500000044
6.497134615,3.3971501072031547e-06,4.17022715124093e-06,2.9567064336468278e-06,5.095220493222798e-06,4.968758714909805e-05,3.0963439470881293e-06,0.36475961500000054
6.497653846,3.4112227835846524e-06,4.178254511930201e-06,2.9739664520874588e-06,5.098193832175261e-06,4.966802298596436e-05,3.0953113239097845e-06,0.3652788460000007
6.498173077,3.420955004632389e-06,4.1826033696312405e-06,2.983375786424933e-06,5.098022476661083e-06,4.96567025789197e-05,3.0879555916138925e-06,0.365798077
6.498692308,3.4239088404971726e-06,4.182404259297055e-06,2.987879116644632e-06,5.100859212215934e-06,4.965681709989932e-05,3.0836376651652508e-06,0.3663173080000002
6.499211538,3.4215772581519538e-06,4.179808623518308e-06,2.990942532835328e-06,5.105139650164315e-06,4.965425749926338e-05,3.0836217849825e-06,0.36683653800000027
6.499730769,3.41641161122852e-06,4.173948458529879e-06,2.993719001943312e-06,5.1018212361306e-06,4.964444839891909e-05,3.0852879396649923e-06,0.36735576900000044
6.50025,3.4112354900321723e-06,4.167417966271693e-06,2.995563018554455e-06,5.087078151971817e-06,4.962643129317423e-05,3.086966518210248e-06,0.3678750000000006
6.500769231,3.4082986654357923e-06,4.165386253085851e-06,2.996074298955125e-06,5.040704431618922e-06,4.960157143605328e-05,3.088330372324964e-06,0.3683942309999999
6.501288462,3.4085768604774667e-06,4.168895884671098e-06,2.9962296465086416e-06,4.941237341566465e-06,4.958652653307892e-05,3.0897268737677784e-06,0.3689134620000001
6.501807692,3.4088063838787377e-06,4.177639140334675e-06,2.9971711016297084e-06,4.788081325581473e-06,4.958858396107331e-05,3.091670364435876e-06,0.3694326920000002
6.502326923,3.4095471411141685e-06,4.191758724384266e-06,2.997328119542288e-06,4.602486048402165e-06,4.953840412831671e-05,3.093558247852625e-06,0.36995192300000035
6.502846154,3.4135357815877097e-06,4.212073714077327e-06,2.9992169936499205e-06,4.44311583883223e-06,4.9430872795780655e-05,3.094139617709259e-06,0.3704711540000005
6.503365385,3.4160019908256414e-06,4.242230832646186e-06,3.0100986448102814e-06,4.342326375166887e-06,4.946653607063361e-05,3.094039542414528e-06,0.3709903850000007
6.503884615,3.416297121336851e-06,4.285806407776292e-06,3.025018320532268e-06,4.257952286256339e-06,4.9707955927738846e-05,3.094049648364025e-06,0.3715096149999999
6.504403846,3.4114578859791187e-06,4.3408459413393296e-06,3.031524376751678e-06,4.15403169336558e-06,4.994294510052677e-05,3.1002857531073314e-06,0.3720288460000001
6.504923077,3.3858922207827573e-06,4.401175396749218e-06,3.030314364014837e-06,4.037401960430642e-06,5.006859374029174e-05,3.1247069289070305e-06,0.37254807700000026
6.505442308,3.347448745569581e-06,4.464527280103523e-06,3.034629195126928e-06,3.9494988146835016e-06,5.014045472015628e-05,3.1616094988363903e-06,0.37306730800000043
6.505961538,3.3227347294839684e-06,4.534741254480265e-06,3.048306688063666e-06,3.922121633634512e-06,5.020403202339936e-05,3.192152988722499e-06,0.3735865380000005
6.506480769,3.3128883190197737e-06,4.614412516781354e-06,3.058468248936081e-06,3.922236076090009e-06,5.02366250479192e-05,3.2132785727444403e-06,0.3741057690000007
6.507,3.3136803859952934e-06,4.700926093638475e-06,3.059825281284313e-06,3.921347958710846e-06,5.023312862260745e-05,3.2366598600966803e-06,0.374625
6.507519231,3.3188827118194995e-06,4.793854914471845e-06,3.060012288973726e-06,3.93131507062198e-06,5.041374985487919e-05,3.275275042619545e-06,0.37514423100000016
6.508038462,3.3035484460523246e-06,4.9049009784465306e-06,3.0584015904824016e-06,3.947729384947455e-06,5.087778975027739e-05,3.327237302455469e-06,0.37566346200000034
6.508557692,3.2703284699191515e-06,5.053274045665871e-06,3.05183011836108e-06,3.959300499319999e-06,5.128429404262498e-05,3.372188247937666e-06,0.37618269200000043
