Time,Rectus Femoris,Vastus Medialis,Vastus Lateralis,Bicep Femoris,Tibialis,Gastrocnemius Medialis,Trimmed Time
5.35275,3.5588441561698405e-06,3.696824632817387e-06,2.94549133359833e-06,2.883715998368045e-06,4.751670841402681e-05,2.152924328481713e-06,0.0
5.353269231,3.558813004082372e-06,3.696733513449524e-06,2.953230727807617e-06,2.859584225130971e-06,4.74770420443771e-05,2.138073743400828e-06,0.0005192309999992872
5.353788462,3.5618539554710563e-06,3.6962478637400895e-06,2.9561715448559898e-06,2.841788324446282e-06,4.745057715384095e-05,2.1341220085541097e-06,0.0010384619999994626
5.354307692,3.5686441583975637e-06,3.693632921012796e-06,2.955695253587057e-06,2.831860433455764e-06,4.742809934187909e-05,2.1358365159879512e-06,0.0015576919999995553
5.354826923,3.5739351417341943e-06,3.690978131102524e-06,2.9525280164836584e-06,2.819618749332824e-06,4.741706477580979e-05,2.135720485285886e-06,0.0020769229999997307
5.355346154,3.57384076789956e-06,3.69098427897584e-06,2.9499067933279605e-06,2.8179887312541245e-06,4.743125561510139e-05,2.131034695598221e-06,0.002596153999999906
5.355865385,3.568225663065307e-06,3.691350716947187e-06,2.949531496177304e-06,2.8429445139258997e-06,4.749077416928238e-05,2.1260295874070763e-06,0.0031153850000000816
5.356384615,3.557953709603941e-06,3.688507659449282e-06,2.950254321580129e-06,2.87853658225323e-06,4.761835506052493e-05,2.124415438105357e-06,0.003634614999999286
5.356903846,3.54913127213699e-06,3.6834646974847914e-06,2.948463674855037e-06,2.901837370883385e-06,4.7792848817401165e-05,2.1243369766765125e-06,0.0041538459999994615
5.357423077,3.546497059793419e-06,3.68171757943974e-06,2.942479639402625e-06,2.9110004561071125e-06,4.79372905182575e-05,2.126186928360063e-06,0.004673076999999637
5.357942308,3.54633986000841e-06,3.689817788399945e-06,2.9383735030590664e-06,2.9135007578076013e-06,4.80028662174427e-05,2.1280819334435857e-06,0.005192307999999812
5.358461538,3.5489032372768885e-06,3.708938510647576e-06,2.938381182364409e-06,2.9149177298486403e-06,4.801330848105941e-05,2.1257948732516785e-06,0.005711537999999905
5.358980769,3.5547020811573244e-06,3.728810710986983e-06,2.938393994437671e-06,2.9176976454291355e-06,4.800392533274845e-05,2.1262630077673437e-06,0.00623076900000008
5.3595,3.556917002225344e-06,3.738821639814936e-06,2.935576465268322e-06,2.9192226689855982e-06,4.7997824087114834e-05,2.134245239507436e-06,0.006749999999999368
5.360019231,3.554990652932219e-06,3.7377432937815146e-06,2.9297268069114237e-06,2.919259505422539e-06,4.80191077091806e-05,2.141145509251004e-06,0.007269230999999543
5.360538462,3.550980369675269e-06,3.7279563041450735e-06,2.925425040511599e-06,2.919560984351984e-06,4.804595182800942e-05,2.140854079551178e-06,0.0077884619999997184
5.361057692,3.545061863434631e-06,3.718949319722582e-06,2.922703931045993e-06,2.920524302550685e-06,4.80445497901536e-05,2.136264352384833e-06,0.008307691999999811
5.361576923,3.5404888073098184e-06,3.718237091514376e-06,2.924950160628806e-06,2.928111260587356e-06,4.805725640540951e-05,2.133826779933098e-06,0.008826922999999987
5.362096154,3.535818486067562e-06,3.719108796884633e-06,2.9413244200747466e-06,2.9429989148200377e-06,4.812387581939083e-05,2.1354009611271853e-06,0.009346153999999274
5.362615385,3.532924340843165e-06,3.718874135652596e-06,2.956983160555018e-06,2.95403767751704e-06,4.821288170098063e-05,2.1339780442917277e-06,0.00986538499999945
5.363134615,3.5366898341612443e-06,3.719952526842632e-06,2.9537350799378134e-06,2.9571217220751838e-06,4.824136837463074e-05,2.121385059765093e-06,0.010384614999999542
5.363653846,3.5418311424030507e-06,3.717764509893069e-06,2.941767529790309e-06,2.957159299709628e-06,4.799824799537571e-05,2.0981964873748965e-06,0.010903845999999717
5.364173077,3.543304105018279e-06,3.712130655211904e-06,2.9341483799200496e-06,2.957287946111349e-06,4.728525137227992e-05,2.0748765894609934e-06,0.011423076999999893
5.364692308,3.5426720253166214e-06,3.7091060736742265e-06,2.93271912891347e-06,2.9578729527015942e-06,4.6268813943687655e-05,2.0613414079427807e-06,0.011942308000000068
5.365211538,3.541354962520804e-06,3.708979211466216e-06,2.932200056746397e-06,2.9551838246346664e-06,4.53361525436744e-05,2.057533720013633e-06,0.012461537999999273
5.365730769,3.537387626001152e-06,3.708733537691784e-06,2.92233877394455e-06,2.9475184554350203e-06,4.467980262047081e-05,2.0589101847994407e-06,0.012980768999999448
5.36625,3.522382860204464e-06,3.708348910042677e-06,2.907655066522162e-06,2.9404831578908058e-06,4.428524140948839e-05,2.0624162090465277e-06,0.013499999999999623
5.366769231,3.48464945136038e-06,3.708431080546404e-06,2.900933840924912e-06,2.937881887470037e-06,4.415670390448701e-05,2.0627766079435235e-06,0.014019230999999799
5.367288462,3.429745529707824e-06,3.708828097102868e-06,2.901213260352813e-06,2.937561857857615e-06,4.427262357130409e-05,2.057500780069537e-06,0.014538461999999974
5.367807692,3.3828858028749903e-06,3.708784117447199e-06,2.9028643575216274e-06,2.937742718249276e-06,4.427052722120386e-05,2.0524873715742183e-06,0.015057692000000067
5.368326923,3.3595637905024097e-06,3.7055166716601177e-06,2.9050932519292143e-06,2.937978218074047e-06,4.381904975544731e-05,2.0504837796223107e-06,0.015576922999999354
5.368846154,3.35372591228474e-06,3.697694790724844e-06,2.9084772163832046e-06,2.937787983532498e-06,4.321579490746404e-05,2.049415457890442e-06,0.01609615399999953
5.369365385,3.352708197853325e-06,3.687893229609777e-06,2.914994177250555e-06,2.938342569894794e-06,4.286009955264309e-05,2.047879421701284e-06,0.016615384999999705
5.369884615,3.353410551628064e-06,3.6782988584992034e-06,2.9264747877039894e-06,2.937817514841549e-06,4.27084305265158e-05,2.0424618635966976e-06,0.017134614999999798
5.370403846,3.360290556685546e-06,3.670151558010096e-06,2.9397398558786936e-06,2.938256528110929e-06,4.258504676723696e-05,2.0346161331789484e-06,0.017653845999999973
5.370923077,3.3703781615204965e-06,3.6680089428041336e-06,2.9472173367037803e-06,2.951253449433839e-06,4.2402263794552166e-05,2.032154078456064e-06,0.01817307699999926
5.371442308,3.3780674094337213e-06,3.678586164170477e-06,2.947321213751119e-06,2.9719071580212514e-06,4.225304217804707e-05,2.038619858571082e-06,0.018692307999999436
5.371961538,3.3831842732607698e-06,3.70034763489858e-06,2.9461560999885183e-06,2.9809176118483706e-06,4.229096198146781e-05,2.050688500143111e-06,0.01921153799999953
5.372480769,3.3813175182329166e-06,3.719880977428257e-06,2.9459169423614365e-06,2.974483572889255e-06,4.234301326743928e-05,2.058476832546377e-06,0.019730768999999704
5.373,3.3712571002004e-06,3.72670023647674e-06,2.9465215634814e-06,2.9635655186363063e-06,4.218001471342119e-05,2.05264319293597e-06,0.02024999999999988
5.373519231,3.365001918751144e-06,3.724987552135031e-06,2.9507870227694955e-06,2.960963624191597e-06,4.19608623993019e-05,2.0426920836829264e-06,0.020769231000000055
5.374038462,3.364858978100927e-06,3.7240191735958655e-06,2.959664446004303e-06,2.9633801607525277e-06,4.1895479374553634e-05,2.045884008939984e-06,0.021288461999999342
5.374557692,3.364879205753587e-06,3.724966207590392e-06,2.9689826429012805e-06,2.9615978312296484e-06,4.190758528749303e-05,2.059528806745711e-06,0.021807691999999435
5.375076923,3.365105682080483e-06,3.7251958569064105e-06,2.972680479921679e-06,2.9646078561469345e-06,4.1874182038190354e-05,2.072437686981173e-06,0.02232692299999961
5.375596154,3.348296206984258e-06,3.7232297769025168e-06,2.9719433823012467e-06,2.972616360809055e-06,4.18573069391944e-05,2.082827598137614e-06,0.022846153999999785
5.376115385,3.3054124496028256e-06,3.717118668755902e-06,2.9757002517062026e-06,2.9746680938431627e-06,4.201788164848279e-05,2.0927573555556177e-06,0.02336538499999996
5.376634615,3.2678776428928283e-06,3.7110518001040953e-06,2.984046706083709e-06,2.974706795168716e-06,4.238815551223069e-05,2.103790759524778e-06,0.023884615000000053
5.377153846,3.2545790282221148e-06,3.712158022183652e-06,2.986943180435934e-06,2.971309035283681e-06,4.278815555084258e-05,2.118600482776447e-06,0.02440384599999934
5.377673077,3.252005535277681e-06,3.719530906954975e-06,2.987586672099649e-06,2.9608411033026404e-06,4.302884732589227e-05,2.140033592148734e-06,0.024923076999999516
5.378192308,3.2507610104381025e-06,3.7262985709209615e-06,2.9965406856337214e-06,2.952761251721757e-06,4.3101646008464346e-05,2.1651963529742776e-06,0.02544230799999969
5.378711538,3.2486884520917806e-06,3.7287531091352994e-06,3.007623407633352e-06,2.9494393679201093e-06,4.310415709430709e-05,2.1818273233133053e-06,0.025961537999999784
5.379230769,3.247552403312738e-06,3.7294696029667247e-06,3.011913065231648e-06,2.9490844640024757e-06,4.310873000097176e-05,2.18283683089572e-06,0.02648076899999996
5.37975,3.247215373635408e-06,3.7296785001861456e-06,3.011990529409418e-06,2.9516518276342035e-06,4.311886461649055e-05,2.180703726492417e-06,0.026999999999999247
5.380269231,3.240119897736828e-06,3.728273869443401e-06,3.012822761384484e-06,2.9529060895954367e-06,4.3091312921675786e-05,2.1841185479911357e-06,0.027519230999999422
5.380788462,3.230306710157477e-06,3.7262122345073466e-06,3.0150602936115845e-06,2.951037230382076e-06,4.302970744290199e-05,2.181194056676197e-06,0.028038461999999598
5.381307692,3.22694590889937e-06,3.724219235362544e-06,3.0140171669951825e-06,2.947898300693779e-06,4.299432943664309e-05,2.166322295725309e-06,0.02855769199999969
5.381826923,3.225670745680736e-06,3.721008224959064e-06,3.007923677383388e-06,2.945573440163875e-06,4.299178389169471e-05,2.1530006377396826e-06,0.029076922999999866
5.382346154,3.222775666711977e-06,3.713515969189624e-06,3.0005658068298555e-06,2.946287804191824e-06,4.299450798566751e-05,2.1533224078632467e-06,0.02959615400000004
5.382865385,3.221784044554229e-06,3.700310224819187e-06,2.994026754825802e-06,2.947664828289661e-06,4.304093464120531e-05,2.162611751630769e-06,0.03011538499999933
5.383384615,3.2219999199982686e-06,3.686423144548912e-06,2.988282903504592e-06,2.946153365310813e-06,4.3200390785653606e-05,2.1720545105042814e-06,0.03063461499999942
5.383903846,3.223936399328308e-06,3.6793453175076455e-06,2.983771647889947e-06,2.951195257878868e-06,4.35032812720277e-05,2.181439420015313e-06,0.031153845999999596
5.384423077,3.226315898604525e-06,3.679059857911261e-06,2.981572302817999e-06,2.9642571383882696e-06,4.39482297606041e-05,2.1944722084835977e-06,0.03167307699999977
5.384942308,3.224401444923387e-06,3.679473766248263e-06,2.9813985190474933e-06,2.969482269764572e-06,4.446525272557733e-05,2.2087290194905647e-06,0.03219230799999995
5.385461538,3.2261110103264527e-06,3.6785371177424272e-06,2.982595396653885e-06,2.9673494824884213e-06,4.487675452326577e-05,2.2098451964154464e-06,0.03271153800000004
5.385980769,3.232170938047064e-06,3.6778590526515298e-06,2.9861452778783705e-06,2.9663159991430736e-06,4.507601340809329e-05,2.1939429435000937e-06,0.03323076899999933
5.3865,3.2338843078016405e-06,3.680225962700021e-06,2.989983107489369e-06,2.9659859096063783e-06,4.510916226758359e-05,2.174712499528403e-06,0.0337499999999995
5.387019231,3.2300839185876872e-06,3.686891736817836e-06,2.990557742333192e-06,2.969554300623495e-06,4.502416586582639e-05,2.1583982265079336e-06,0.03426923099999968
5.387538462,3.207839763028055e-06,3.6908107508328097e-06,2.9893611850735007e-06,2.974248145775631e-06,4.495807325678758e-05,2.1469647875973905e-06,0.03478846199999985
5.388057692,3.166342122932932e-06,3.690228034209192e-06,2.990038841695482e-06,2.975023712393265e-06,4.521941606789081e-05,2.140125166317545e-06,0.035307691999999946
5.388576923,3.142266954992033e-06,3.694939713019444e-06,2.9903521369204595e-06,2.9750786731915143e-06,4.583785621758637e-05,2.136563877182848e-06,0.03582692299999923
5.389096154,3.15623517388198e-06,3.705097499693149e-06,2.988154694149055e-06,2.9702309991858245e-06,4.6347365759564666e-05,2.139339471537601e-06,0.03634615399999941
5.389615385,3.1886770022663794e-06,3.7100493922879858e-06,2.986993805156053e-06,2.961271789897146e-06,4.647274774874446e-05,2.14247535506569e-06,0.036865384999999584
5.390134615,3.2188395912602087e-06,3.703135629011966e-06,2.986958888134716e-06,2.959520730482601e-06,4.645366678658721e-05,2.1408203043697382e-06,0.03738461499999968
5.390653846,3.2368217177757653e-06,3.688571225865936e-06,2.9895812224549837e-06,2.9587433485947576e-06,4.6483338524176975e-05,2.1382686385525707e-06,0.03790384599999985
5.391173077,3.2445953889390563e-06,3.679387208931005e-06,2.996699563197901e-06,2.9530334093169486e-06,4.650311183424967e-05,2.137410002285577e-06,0.03842307700000003
5.391692308,3.250803634008603e-06,3.67908001021306e-06,3.0009365678862664e-06,2.950249492323518e-06,4.647988626518349e-05,2.1378381509395376e-06,0.038942307999999315
5.392211538,3.245927981317097e-06,3.678835973090235e-06,3.0000603368000213e-06,2.950610982406718e-06,4.645650250577445e-05,2.1377451438902e-06,0.03946153799999941
5.392730769,3.219152645266764e-06,3.676403848128134e-06,2.9885181740398117e-06,2.954403750041447e-06,4.648382395019601e-05,2.1335232111539563e-06,0.03998076899999958
5.39325,3.180147512425904e-06,3.67784145599376e-06,2.9545422472352383e-06,2.9625655914363817e-06,4.662920781801639e-05,2.127216663413961e-06,0.04049999999999976
5.393769231,3.1399154451982686e-06,3.683090452871993e-06,2.910181806906323e-06,2.966953496497078e-06,4.6917276898101736e-05,2.127634697196259e-06,0.041019230999999934
5.394288462,3.105005893647485e-06,3.685490461656325e-06,2.874594283165594e-06,2.962989892414065e-06,4.72725931941406e-05,2.1322949632593263e-06,0.04153846199999922
5.394807692,3.0785641845712574e-06,3.6844622745130455e-06,2.848500372070265e-06,2.9554618372567377e-06,4.7594943688619326e-05,2.134568762383596e-06,0.042057691999999314
5.395326923,3.055213125476329e-06,3.6830645687958617e-06,2.827266531000448e-06,2.950463843370964e-06,4.778668213467762e-05,2.134134032940189e-06,0.04257692299999949
5.395846154,3.030688490097189e-06,3.6816244147929726e-06,2.813343463962566e-06,2.949635468607276e-06,4.77751425693676e-05,2.1308706664468924e-06,0.043096153999999665
5.396365385,3.009465751496599e-06,3.679631417791596e-06,2.808989567885173e-06,2.94932346114771e-06,4.7737956845935344e-05,2.129033915866719e-06,0.04361538499999984
5.396884615,3.003146297171436e-06,3.675240903255581e-06,2.8082658940146435e-06,2.948061282289188e-06,4.808222918388549e-05,2.130069262535702e-06,0.04413461499999993
5.397403846,3.018479807276453e-06,3.664519619104371e-06,2.8101315327913994e-06,2.94815732023902e-06,4.870224015460242e-05,2.1302009918748604e-06,0.04465384599999922
5.397923077,3.044124619100668e-06,3.6448786183689898e-06,2.820012775773642e-06,2.94749894514896e-06,4.891922416366692e-05,2.14464278257182e-06,0.045173076999999395
5.398442308,3.060614959593114e-06,3.624843017252095e-06,2.836662328582311e-06,2.948361923228449e-06,4.8656421844795054e-05,2.197256852855277e-06,0.04569230799999957
5.398961538,3.064631766324473e-06,3.617133768417017e-06,2.856111198755068e-06,2.9561863385258884e-06,4.845896681245848e-05,2.2678968123985343e-06,0.04621153799999966
5.399480769,3.06933434970105e-06,3.620978692199924e-06,2.870405024840914e-06,2.9550056319053066e-06,4.845820704718827e-05,2.306672222551051e-06,0.04673076899999984
5.4,3.083941162012351e-06,3.628424560533054e-06,2.871165908605985e-06,2.9260810682896003e-06,4.8467112046720055e-05,2.3062908484050856e-06,0.047250000000000014
5.400519231,3.110080105681054e-06,3.635644459064152e-06,2.870591387610844e-06,2.8859340795111757e-06,4.844195475918972e-05,2.300976494444793e-06,0.0477692309999993
5.401038462,3.140782581197342e-06,3.641752301990565e-06,2.873805207216888e-06,2.861892965781754e-06,4.836753994466604e-05,2.3085774861966066e-06,0.04828846199999948
5.401557692,3.1621784268529866e-06,3.644394560159833e-06,2.864000301874078e-06,2.8565250883802696e-06,4.8239441771156166e-05,2.3207126090550927e-06,0.04880769199999957
5.402076923,3.170831277744365e-06,3.640079214202292e-06,2.850317867994728e-06,2.8616569453001568e-06,4.8170248402713005e-05,2.3288118891454896e-06,0.049326922999999745
5.402596154,3.173999146662429e-06,3.62897213346066e-06,2.849805134924257e-06,2.875554943762372e-06,4.827479560276852e-05,2.335652414538485e-06,0.04984615399999992
5.403115385,3.1817442057273325e-06,3.6154762665764775e-06,2.85000566909998e-06,2.897816205576774e-06,4.84659600187157e-05,2.34389965140946e-06,0.050365385000000096
5.403634615,3.1994878904554834e-06,3.6047395114560254e-06,2.844499819073141e-06,2.920501948411357e-06,4.856838323134296e-05,2.349549034572414e-06,0.0508846149999993
5.404153846,3.2227902501578296e-06,3.597362140560206e-06,2.8406150831580438e-06,2.937213712491894e-06,4.857512037521185e-05,2.352176937810702e-06,0.051403845999999476
5.404673077,3.2450505098090228e-06,3.584295797395938e-06,2.839608358040801e-06,2.949041579361433e-06,4.856895825356862e-05,2.3546153035416644e-06,0.05192307699999965
5.405192308,3.2590909348909798e-06,3.557269941827188e-06,2.841661443797118e-06,2.952679864946921e-06,4.8554428998673584e-05,2.359519250528328e-06,0.052442307999999827
5.405711538,3.2612551324496147e-06,3.527161846170157e-06,2.845006184334937e-06,2.946625974459055e-06,4.851767737319411e-05,2.365947138619931e-06,0.05296153799999992
5.406230769,3.262075121166416e-06,3.510995558186775e-06,2.843418478350737e-06,2.9417697996408077e-06,4.847703139066445e-05,2.369261422429188e-06,0.053480769000000095
5.40675,3.263484331987064e-06,3.5072047890529e-06,2.8325210811096227e-06,2.947746871033175e-06,4.844157950795128e-05,2.368979929970229e-06,0.05399999999999938
5.407269231,3.250241634326861e-06,3.50631294322119e-06,2.81860465504622e-06,2.9585504061595804e-06,4.8419259699638766e-05,2.3689940294311486e-06,0.05451923099999956
5.407788462,3.225948616423741e-06,3.5059522727393438e-06,2.8153639719559563e-06,2.96162169343576e-06,4.842110855966121e-05,2.372154730271723e-06,0.05503846199999973
5.408307692,3.206864770839808e-06,3.5085972052844037e-06,2.8187229888406312e-06,2.9616182982083462e-06,4.843531259964839e-05,2.3771344300030013e-06,0.055557691999999825
5.408826923,3.206232221333408e-06,3.5197267160543447e-06,2.81871367788668e-06,2.9839452635714244e-06,4.8444258045468354e-05,2.37972888821872e-06,0.056076923
5.409346154,3.226850791950633e-06,3.542179173058037e-06,2.830085253690333e-06,3.0489434986843477e-06,4.843478420793041e-05,2.3789085437746328e-06,0.05659615399999929
5.409865385,3.243339123184408e-06,3.573628284482946e-06,2.860756687553414e-06,3.153126122117437e-06,4.8397613896863246e-05,2.3772856509693245e-06,0.05711538499999946
5.410384615,3.245028619030445e-06,3.613908029258118e-06,2.89665025376496e-06,3.272372658491922e-06,4.835969186191232e-05,2.3758717367415066e-06,0.057634614999999556
5.410903846,3.2442711579946592e-06,3.664405738929741e-06,2.9285801780570025e-06,3.3800057983026964e-06,4.834933900894298e-05,2.3734648556260195e-06,0.05815384599999973
5.411423077,3.245769905646493e-06,3.715670357413063e-06,2.9533108280258693e-06,3.4636278878117386e-06,4.836206937877427e-05,2.368461759066606e-06,0.05867307699999991
5.411942308,3.275005126019086e-06,3.7498767223545256e-06,2.970421895431226e-06,3.5258599376352703e-06,4.841046131852276e-05,2.363135514903548e-06,0.05919230800000008
5.412461538,3.339350754592618e-06,3.763123390030473e-06,2.9837507523636954e-06,3.5718080592878844e-06,4.85182402382669e-05,2.361754785362401e-06,0.05971153799999929
5.412980769,3.390825654490399e-06,3.7616553041727583e-06,2.9938525606568877e-06,3.5983314315555584e-06,4.867167298033705e-05,2.362253632386253e-06,0.06023076899999946
5.4135,3.400490284658531e-06,3.746324131432109e-06,2.997576980499858e-06,3.60312690890414e-06,4.883033803285931e-05,2.360904652468086e-06,0.06074999999999964
5.414019231,3.3793781895109105e-06,3.7208752099122392e-06,2.996022441902571e-06,3.592267580460611e-06,4.895995966110406e-05,2.3608426482036543e-06,0.06126923099999981
5.414538462,3.345721671634435e-06,3.690583552238073e-06,2.996273925606959e-06,3.573321099045981e-06,4.904016259830522e-05,2.3696566257851983e-06,0.06178846199999999
5.415057692,3.3180482508273874e-06,3.664255784453952e-06,3.001066453663632e-06,3.5581835140017942e-06,4.907485658045485e-05,2.3863588513796428e-06,0.06230769200000008
5.415576923,3.305978322326031e-06,3.648778797848597e-06,3.0041280048684774e-06,3.557000376309432e-06,4.909032387033399e-05,2.396636257880689e-06,0.06282692299999937
5.416096154,3.303705234568781e-06,3.635242487826492e-06,3.004134780673101e-06,3.561591665832307e-06,4.9112805723093245e-05,2.3967185510802665e-06,0.06334615399999954
5.416615385,3.3033946740982587e-06,3.620884612827195e-06,3.005740968275135e-06,3.5658155889324613e-06,4.917585420051698e-05,2.3987000212762687e-06,0.06386538499999972
5.417134615,3.303102186400225e-06,3.608805438015126e-06,3.009882830492516e-06,3.5746993885141432e-06,4.929003466148622e-05,2.404594716420244e-06,0.06438461499999981
5.417653846,3.30343212888398e-06,3.596754903140522e-06,3.0150781860124294e-06,3.5794731546735488e-06,4.939809436863247e-05,2.407440321514913e-06,0.06490384599999999
5.418173077,3.305013451509116e-06,3.5908859081703696e-06,3.017558570620638e-06,3.576080490868493e-06,4.9454172095351503e-05,2.409503060587827e-06,0.06542307699999927
5.418692308,3.3041293623113564e-06,3.592353171297096e-06,3.017026882171129e-06,3.576625314207528e-06,4.948309335449658e-05,2.414165719781863e-06,0.06594230799999945
5.419211538,3.29752215480785e-06,3.5935814073908216e-06,3.0173031265246327e-06,3.5801360542924648e-06,4.9512767649197175e-05,2.4189161751715523e-06,0.06646153799999954
5.419730769,3.288381058470574e-06,3.592990412955969e-06,3.0152977786649987e-06,3.5806181998651422e-06,4.953800572533286e-05,2.423127282381784e-06,0.06698076899999972
5.42025,3.279825719722421e-06,3.5911236941539643e-06,3.0090654372735506e-06,3.581062777897847e-06,4.9541002521020047e-05,2.426310146881682e-06,0.0674999999999999
5.420769231,3.2705323188371608e-06,3.5912767598463645e-06,3.005193722941519e-06,3.5824793914002674e-06,4.9509390051755085e-05,2.427219198072925e-06,0.06801923100000007
5.421288462,3.256784202788481e-06,3.5928026518153426e-06,3.0048103525972733e-06,3.584035626420429e-06,4.945960711469285e-05,2.4275221036529064e-06,0.06853846199999936
5.421807692,3.236778830107843e-06,3.5937937162342104e-06,3.004785314899292e-06,3.58371126313537e-06,4.9421689946080194e-05,2.427765718878427e-06,0.06905769199999945
5.422326923,3.2162253428909203e-06,3.5970550456633828e-06,3.004131692654408e-06,3.5768575374642376e-06,4.939508806593704e-05,2.4270924303251424e-06,0.06957692299999962
5.422846154,3.208777628930841e-06,3.5985514066554136e-06,3.0015772608995997e-06,3.562872826441764e-06,4.936797200565904e-05,2.4268656911426896e-06,0.0700961539999998
5.423365385,3.2108216883317148e-06,3.597383057860002e-06,2.999009473823395e-06,3.5476512279005723e-06,4.937382041287141e-05,2.427761836852511e-06,0.07061538499999997
5.423884615,3.201384023427408e-06,3.598696323335507e-06,2.999516591188388e-06,3.539186761563954e-06,4.949250208213008e-05,2.4293804323094467e-06,0.07113461500000007
5.424403846,3.188344587413758e-06,3.6002119900017923e-06,3.0009622997293566e-06,3.5398324503728666e-06,4.977677707691928e-05,2.430681422678264e-06,0.07165384599999935
5.424923077,3.186584362304834e-06,3.60004890530269e-06,2.999480021519674e-06,3.5425209077663112e-06,5.0155576000153285e-05,2.428747174148523e-06,0.07217307699999953
5.425442308,3.1853673580094508e-06,3.6004011028922567e-06,2.996590545345394e-06,3.542871171643749e-06,5.0462042198595433e-05,2.4261302668572853e-06,0.0726923079999997
5.425961538,3.178973994463628e-06,3.601712795031919e-06,2.995462335011281e-06,3.5421138051583917e-06,5.0606422478811256e-05,2.42728963367882e-06,0.0732115379999998
5.426480769,3.167407456560748e-06,3.60340524571871e-06,2.9952478696892435e-06,3.536952079460077e-06,5.063969780201546e-05,2.4286152792477283e-06,0.07373076899999997
5.427,3.1519410848553006e-06,3.6051554383946896e-06,2.9952162332555656e-06,3.533214849768655e-06,5.0639225941903886e-05,2.4278773315226283e-06,0.07424999999999926
5.427519231,3.1477670220386617e-06,3.607224966653259e-06,2.997411054489873e-06,3.538370123048961e-06,5.064209366946629e-05,2.4276932467307263e-06,0.07476923099999944
5.428038462,3.1599668706490586e-06,3.610236396393006e-06,3.002918495392715e-06,3.5393247494182776e-06,5.065762211229429e-05,2.4270736501185367e-06,0.07528846199999961
5.428557692,3.167720022173176e-06,3.612125163906407e-06,3.0091787123917483e-06,3.5361306984947944e-06,5.067042833626488e-05,2.4248324644172494e-06,0.0758076919999997
5.429076923,3.159598216560778e-06,3.606358380931897e-06,3.013856868280208e-06,3.540005551791812e-06,5.067185988783391e-05,2.4254232357942e-06,0.07632692299999988
5.429596154,3.1482754909472177e-06,3.593318695006191e-06,3.017574972758278e-06,3.5319727156621977e-06,5.067230059207597e-05,2.4303476101136726e-06,0.07684615400000006
5.430115385,3.1456900219808103e-06,3.581167227156881e-06,3.018452088286025e-06,3.5083967163099684e-06,5.0673477399874265e-05,2.429226460550039e-06,0.07736538499999934
5.430634615,3.1465977233561845e-06,3.5738207270108576e-06,3.010630499080941e-06,3.498161636037241e-06,5.067520553615912e-05,2.414269251272485e-06,0.07788461499999944
5.431153846,3.135393700821265e-06,3.571472600101287e-06,2.990133231901251e-06,3.500449345236924e-06,5.0678248387228325e-05,2.396321606601088e-06,0.07840384599999961
5.431673077,3.1157221048180134e-06,3.571182730474417e-06,2.960924241677497e-06,3.500120721606059e-06,5.068059394710543e-05,2.387755651228297e-06,0.07892307699999979
5.432192308,3.1057466642158274e-06,3.571397886834644e-06,2.9349750493628468e-06,3.5016426595929137e-06,5.068708647905996e-05,2.385864274379492e-06,0.07944230799999996
5.432711538,3.1051721533348914e-06,3.573386953345308e-06,2.921694944232313e-06,3.507030377525844e-06,5.0694943392551415e-05,2.3853277745029648e-06,0.07996153800000005
5.433230769,3.105863376900156e-06,3.575467564350755e-06,2.9191713598065413e-06,3.5129807609054458e-06,5.07125121817308e-05,2.388468092150509e-06,0.08048076899999934
5.43375,3.09444806757672e-06,3.576350974674605e-06,2.917963200086131e-06,3.51706534902781e-06,5.077743426530284e-05,2.404410027625348e-06,0.08099999999999952
5.434269231,3.0564568006733377e-06,3.5764785846724377e-06,2.907492011667865e-06,3.514332078159424e-06,5.088827312402035e-05,2.435090808177181e-06,0.08151923099999969
5.434788462,3.0047912551338568e-06,3.5741933767666865e-06,2.883764640295591e-06,3.5056853040748377e-06,5.098478822851056e-05,2.4655951783662645e-06,0.08203846199999987
5.435307692,2.9631592272190727e-06,3.5649261649537748e-06,2.8564142136832702e-06,3.49756583327682e-06,5.102352107429784e-05,2.483784233792804e-06,0.08255769199999996
5.435826923,2.93957942389446e-06,3.554413199266253e-06,2.837840526403934e-06,3.4928301433112867e-06,5.100974165492609e-05,2.489695407578975e-06,0.08307692299999925
5.436346154,2.9307552693549888e-06,3.5529393911121465e-06,2.8287376292457244e-06,3.4913684671570524e-06,5.09649569698845e-05,2.48844415252234e-06,0.08359615399999942
5.436865385,2.929227069604928e-06,3.554885907716377e-06,2.823434930720899e-06,3.4913969545242527e-06,5.089449292714349e-05,2.485215058781613e-06,0.0841153849999996
5.437384615,2.929143409377608e-06,3.554402955542179e-06,2.819256041618581e-06,3.4911284188959494e-06,5.078129681534023e-05,2.4830598322234795e-06,0.08463461499999969
5.437903846,2.927884940040021e-06,3.5545927350319846e-06,2.815719542557574e-06,3.4911009240335195e-06,5.060520745000123e-05,2.482198759720118e-06,0.08515384599999987
5.438423077,2.9227266504758376e-06,3.555833005638353e-06,2.812904067950937e-06,3.487039365112253e-06,5.037926688178018e-05,2.4796173574821804e-06,0.08567307700000004
5.438942308,2.9160775403097445e-06,3.557735656465091e-06,2.813233304704765e-06,3.473098110827892e-06,5.0181284389259015e-05,2.475778835251557e-06,0.08619230799999933
5.439461538,2.9133892208919314e-06,3.5602936044678694e-06,2.8173074344673083e-06,3.4568057785417382e-06,5.010108075706444e-05,2.4747466975790373e-06,0.08671153799999942
5.439980769,2.915352388840575e-06,3.559835102288696e-06,2.815212881291501e-06,3.4466474940779582e-06,5.0101758135818826e-05,2.477908081794569e-06,0.0872307689999996
5.4405,2.9215730928580185e-06,3.554840912642775e-06,2.798609379065201e-06,3.439885509256013e-06,5.013394966598117e-05,2.479116142232975e-06,0.08774999999999977
5.441019231,2.9312445320198487e-06,3.55238229338643e-06,2.771623626395832e-06,3.434383685624908e-06,5.041397312413679e-05,2.4671385663329496e-06,0.08826923099999995
5.441538462,2.940060116535448e-06,3.5560632627640157e-06,2.74031605470371e-06,3.4215642699482283e-06,5.097873997143258e-05,2.4475690486967062e-06,0.08878846199999924
5.442057692,2.94271006125875e-06,3.560208023863471e-06,2.71475658022613e-06,3.3972117079738965e-06,5.130869801209418e-05,2.4382663908465902e-06,0.08930769199999933
5.442576923,2.9377687495900344e-06,3.5603904837479874e-06,2.698416013882783e-06,3.380956739412579e-06,5.123868051551213e-05,2.43851009426906e-06,0.0898269229999995
5.443096154,2.9320431049469715e-06,3.555544931973645e-06,2.691567538375829e-06,3.379514491745824e-06,5.1250186563660434e-05,2.439596782306385e-06,0.09034615399999968
5.443615385,2.934823056024861e-06,3.5413983997819905e-06,2.703797254263821e-06,3.377963264518202e-06,5.152012407571371e-05,2.441140837188986e-06,0.09086538499999985
5.444134615,2.945881147905929e-06,3.512859667787252e-06,2.7191411481389343e-06,3.3727968585067e-06,5.180710941036634e-05,2.448142511080149e-06,0.09138461499999995
5.444653846,2.957284529498374e-06,3.476522043490413e-06,2.7186913653764835e-06,3.3672096374270844e-06,5.199355741886741e-05,2.4659091861935945e-06,0.09190384599999923
5.445173077,2.9625474242317856e-06,3.4445176102323093e-06,2.713837204961189e-06,3.360482655116714e-06,5.210152893171551e-05,2.4872810804094797e-06,0.09242307699999941
5.445692308,2.9611487344769955e-06,3.4164070627589208e-06,2.7114837151305016e-06,3.345054512859704e-06,5.214699697951836e-05,2.499601996197206e-06,0.09294230799999958
5.446211538,2.9617609382499706e-06,3.384948832194516e-06,2.7102839443952856e-06,3.31490049499586e-06,5.214778610127156e-05,2.50327846079267e-06,0.09346153799999968
5.446730769,2.9756045913340293e-06,3.3484732286340144e-06,2.7110838754988645e-06,3.286740127778726e-06,5.213195914097598e-05,2.504893528877156e-06,0.09398076899999985
5.44725,2.9985517904285963e-06,3.3085113064321315e-06,2.702935714160325e-06,3.276420455590893e-06,5.210490826824913e-05,2.504800544443926e-06,0.09450000000000003
5.447769231,3.0148760788671766e-06,3.26771832374963e-06,2.6718348475346267e-06,3.275864222838712e-06,5.208104909732395e-05,2.5062647722125203e-06,0.09501923099999932
5.448288462,3.020395822611736e-06,3.234844826024357e-06,2.6209156596359057e-06,3.275892907245722e-06,5.2150765918068274e-05,2.5121162133866624e-06,0.09553846199999949
5.448807692,3.0199375437170418e-06,3.219931333592104e-06,2.5727858293210385e-06,3.276086369848479e-06,5.2343733710056974e-05,2.514820037976841e-06,0.09605769199999958
5.449326923,3.022889939778609e-06,3.219713344621916e-06,2.5536568519823868e-06,3.275581340972129e-06,5.252063904510556e-05,2.515053224536761e-06,0.09657692299999976
5.449846154,3.046842305421079e-06,3.2187477812678485e-06,2.566390940419312e-06,3.273173763240762e-06,5.257376819836917e-05,2.5229480074087537e-06,0.09709615399999993
5.450365385,3.0837042472246806e-06,3.200105985039393e-06,2.5898734772159542e-06,3.271303069747688e-06,5.253368189284668e-05,2.5398580585656653e-06,0.09761538499999922
5.450884615,3.1013486456938945e-06,3.154941450478831e-06,2.6060341422539342e-06,3.274252583767638e-06,5.2532567290830005e-05,2.5561222839008323e-06,0.09813461499999931
5.451403846,3.096985364690725e-06,3.08438933097724e-06,2.612752195739473e-06,3.2778530059705533e-06,5.283613741611158e-05,2.5607689511818358e-06,0.09865384599999949
5.451923077,3.091053862857541e-06,2.9916537256899014e-06,2.616353664677565e-06,3.2722350339067447e-06,5.352136332828826e-05,2.556954647903842e-06,0.09917307699999967
5.452442308,3.0927344974445328e-06,2.8951960837588785e-06,2.6228878601362583e-06,3.2652774775712947e-06,5.402084363945848e-05,2.5592519039623843e-06,0.09969230799999984
5.452961538,3.099093651204918e-06,2.834778148783923e-06,2.637380146200404e-06,3.2719713223002326e-06,5.380755602411017e-05,2.5704940057544857e-06,0.10021153799999993
5.453480769,3.103731577141311e-06,2.827700738639548e-06,2.652503690813357e-06,3.2827993858992342e-06,5.3309864692021457e-05,2.5740188326161813e-06,0.10073076899999922
5.454,3.104779999342424e-06,2.8467249058114785e-06,2.654363035078312e-06,3.283957481598991e-06,5.315628585100735e-05,2.5557155793115567e-06,0.1012499999999994
5.454519231,3.1047838675975618e-06,2.865147048662585e-06,2.645691774486148e-06,3.2832061342821558e-06,5.333827108043643e-05,2.52417620615997e-06,0.10176923099999957
5.455038462,3.1047939332502493e-06,2.879436578053321e-06,2.634839700324391e-06,3.2853673030732675e-06,5.363134986163179e-05,2.4998459793514507e-06,0.10228846199999975
5.455557692,3.1044589515077843e-06,2.8883699351738243e-06,2.6244488874972484e-06,3.284735603633588e-06,5.382434156569865e-05,2.4912414846087767e-06,0.10280769199999984
5.456076923,3.1039709014590856e-06,2.891370045908025e-06,2.62579434804336e-06,3.284867510899852e-06,5.359824998567096e-05,2.490975183196186e-06,0.10332692300000001
5.456596154,3.103897571654602e-06,2.8957769104158387e-06,2.6459336799542066e-06,3.2859738038866054e-06,5.2814119986766656e-05,2.4893183427090253e-06,0.1038461539999993
5.457115385,3.103987617851502e-06,2.903064578150617e-06,2.6679133636057304e-06,3.282151427858234e-06,5.197992610877799e-05,2.483201353547357e-06,0.10436538499999948
5.457634615,3.103952352440993e-06,2.905260794302681e-06,2.6767817950261213e-06,3.282103611634172e-06,5.177830751665022e-05,2.475423596181233e-06,0.10488461499999957
5.458153846,3.1038629144512026e-06,2.9024703997804723e-06,2.6773729783625784e-06,3.2895929311928763e-06,5.217063478372093e-05,2.47026780251887e-06,0.10540384599999975
5.458673077,3.1017215083075644e-06,2.9008278384969345e-06,2.676443943129754e-06,3.2933364753008345e-06,5.267136549227282e-05,2.468902963140892e-06,0.10592307699999992
5.459192308,3.09771198148465e-06,2.894409411808461e-06,2.673992703293485e-06,3.293324643714026e-06,5.299810171990037e-05,2.468557066307448e-06,0.1064423080000001
5.459711538,3.0983679985575654e-06,2.876840595490307e-06,2.668920503058716e-06,3.2950049770195634e-06,5.3100682476555e-05,2.4694731290137474e-06,0.1069615379999993
5.460230769,3.1032104015796604e-06,2.861421481884691e-06,2.659780794617911e-06,3.2970128542951133e-06,5.304278551203678e-05,2.4706509383362547e-06,0.10748076899999948
5.46075,3.108612146349902e-06,2.8590633532457147e-06,2.6459619492108228e-06,3.2978503759683123e-06,5.299827172338228e-05,2.4707533914744826e-06,0.10799999999999965
5.461269231,3.11806886958945e-06,2.860204924218267e-06,2.640962353726895e-06,3.297096816966709e-06,5.310853683426033e-05,2.4765422246687323e-06,0.10851923099999983
5.461788462,3.1257918970263405e-06,2.8633125708777432e-06,2.6662756946602244e-06,3.2981676154238697e-06,5.330692358416083e-05,2.481851873580761e-06,0.109038462
5.462307692,3.124596575716229e-06,2.874399222898975e-06,2.7105938716429694e-06,3.304272674491366e-06,5.3437925218563896e-05,2.478625083178262e-06,0.1095576920000001
5.462826923,3.1245969325358915e-06,2.888057513331097e-06,2.73926112963024e-06,3.309616281295939e-06,5.345788351957757e-05,2.478686638233446e-06,0.11007692299999938
5.463346154,3.1396406508847745e-06,2.9022802835244403e-06,2.7464767515580777e-06,3.3098652219816733e-06,5.3419254625882565e-05,2.481263446829752e-06,0.11059615399999956
5.463865385,3.157467584580993e-06,2.917891215955653e-06,2.7470935361457284e-06,3.3062063246907726e-06,5.337245794004037e-05,2.4759527261811256e-06,0.11111538499999973
5.464384615,3.1543444696261973e-06,2.939058384088832e-06,2.747834526271846e-06,3.299709446338268e-06,5.334806298781292e-05,2.474698379197968e-06,0.11163461499999983
5.464903846,3.1445702822250426e-06,2.970925724902455e-06,2.752276925369214e-06,3.2971769230643125e-06,5.335551172350395e-05,2.485567682970366e-06,0.112153846
5.465423077,3.1460296524594413e-06,3.0028613044988163e-06,2.76188137953735e-06,3.2995497741333194e-06,5.3354783420126105e-05,2.492585379505076e-06,0.11267307699999929
5.465942308,3.1449433112502544e-06,3.0242117725323023e-06,2.7720809926643404e-06,3.297600585895604e-06,5.328373328160404e-05,2.488932213845624e-06,0.11319230799999946
5.466461538,3.1417203793172382e-06,3.0341139188597217e-06,2.77909111730266e-06,3.294200733131352e-06,5.31371878753655e-05,2.482973751140752e-06,0.11371153799999956
5.466980769,3.1427432858014395e-06,3.0343382785276008e-06,2.78370332658014e-06,3.29567870143563e-06,5.298306303792346e-05,2.477984269874925e-06,0.11423076899999973
5.4675,3.13948119869592e-06,3.031694101970384e-06,2.788764948257488e-06,3.298053125181823e-06,5.289149755233676e-05,2.4722446701044725e-06,0.11474999999999991
5.468019231,3.1359712263610327e-06,3.0304715315134644e-06,2.798320415393276e-06,3.2985533441336e-06,5.2873948573180765e-05,2.4639370920226485e-06,0.11526923100000008
5.468538462,3.1367131330062592e-06,3.0310592785546782e-06,2.8118140989641594e-06,3.293703770529712e-06,5.290356489918795e-05,2.45547669166594e-06,0.11578846199999937
5.469057692,3.137259359146436e-06,3.0395929500169548e-06,2.8189644996352863e-06,3.285412349002363e-06,5.296368719233948e-05,2.450748367022018e-06,0.11630769199999946
5.469576923,3.1356131315115147e-06,3.056461464883511e-06,2.8183095271432385e-06,3.285254057975714e-06,5.303404641400503e-05,2.4514475147474284e-06,0.11682692299999964
5.470096154,3.127175816981477e-06,3.071581948780282e-06,2.82211393551589e-06,3.2884488291184416e-06,5.307831263542351e-05,2.4571027016968037e-06,0.11734615399999981
5.470615385,3.116799864601345e-06,3.080274722950565e-06,2.829392941707929e-06,3.28222157766263e-06,5.308742705175483e-05,2.4616391250539926e-06,0.11786538499999999
5.471134615,3.113458200631731e-06,3.0855297828049864e-06,2.8317452722051296e-06,3.2751395213948964e-06,5.308247502985133e-05,2.46067312776954e-06,0.11838461500000008
5.471653846,3.113366525655152e-06,3.0891128939852127e-06,2.831067337548133e-06,3.2749215402055783e-06,5.307927608535592e-05,2.4554014652262776e-06,0.11890384599999937
5.472173077,3.1146991351657723e-06,3.0924271637466665e-06,2.830629211629238e-06,3.2712044069578767e-06,5.308990738898954e-05,2.450807167783729e-06,0.11942307699999954
5.472692308,3.119736009805421e-06,3.1024825668439976e-06,2.841161852037604e-06,3.2600939004150582e-06,5.311070043943637e-05,2.4536858083858693e-06,0.11994230799999972
5.473211538,3.1240028343642123e-06,3.121053016280599e-06,2.870418467215628e-06,3.248137735770105e-06,5.310991125079772e-05,2.4611672952519185e-06,0.12046153799999981
5.473730769,3.123053789849419e-06,3.139279517807115e-06,2.900832765653462e-06,3.237249118091252e-06,5.308731818389741e-05,2.466220795775533e-06,0.12098076899999999
5.47425,3.1181265116777627e-06,3.152595950313823e-06,2.915946526535722e-06,3.2237839112879808e-06,5.307735846979541e-05,2.471074770332071e-06,0.12149999999999928
5.474769231,3.1123110242216533e-06,3.1628006434241267e-06,2.9209403784603586e-06,3.2052225368070964e-06,5.308035629776556e-05,2.483910423064602e-06,0.12201923099999945
5.475288462,3.1086410860980254e-06,3.170878038124247e-06,2.9246307610152318e-06,3.185889959672041e-06,5.307971030591927e-05,2.510612113085307e-06,0.12253846199999963
5.475807692,3.1081864636507948e-06,3.176929674753644e-06,2.9255438952547594e-06,3.1731725399711347e-06,5.312583728568901e-05,2.544195991095741e-06,0.12305769199999972
5.476326923,3.1098627221769263e-06,3.181361921319783e-06,2.916186713777601e-06,3.1679298441852216e-06,5.333904053827554e-05,2.5695126571274244e-06,0.1235769229999999
5.476846154,3.1174231087486263e-06,3.184638224726325e-06,2.8940630518404963e-06,3.1664186528147023e-06,5.372640336943226e-05,2.5822451105723994e-06,0.12409615400000007
5.477365385,3.135141136397037e-06,3.185976826423925e-06,2.866561084527961e-06,3.167301278934223e-06,5.411280640414221e-05,2.5878145597576807e-06,0.12461538499999936
5.477884615,3.159460518452633e-06,3.1860774385737377e-06,2.844438286077426e-06,3.168138970411496e-06,5.438985009810418e-05,2.5908725586024804e-06,0.12513461499999945
5.478403846,3.1814397293412083e-06,3.1857177838032867e-06,2.8349552139354323e-06,3.1662855850321434e-06,5.463224021801247e-05,2.5926978986348617e-06,0.12565384599999962
5.478923077,3.1900614970985507e-06,3.184237936709123e-06,2.835772530558265e-06,3.1616197030760097e-06,5.4993295587608494e-05,2.591792527937878e-06,0.1261730769999998
5.479442308,3.18427183156882e-06,3.1846401095083965e-06,2.837875824857182e-06,3.1575277137299657e-06,5.5487869538456144e-05,2.593101094028581e-06,0.12669230799999998
5.479961538,3.1770925213412754e-06,3.188119403548893e-06,2.837971565487909e-06,3.157555783744684e-06,5.5833982591481554e-05,2.603549668855293e-06,0.12721153800000007
5.480480769,3.1750903695224508e-06,3.1896707513557822e-06,2.83822302224321e-06,3.146944310089248e-06,5.586183373415332e-05,2.6148412805091e-06,0.12773076899999936
5.481,3.174419954479545e-06,3.188528690614137e-06,2.845048849090668e-06,3.109772222334077e-06,5.584956183994453e-05,2.6178334548449206e-06,0.12824999999999953
5.481519231,3.17612265838055e-06,3.190134239415926e-06,2.857427152156653e-06,3.0647360198969376e-06,5.610025554497912e-05,2.617462306548753e-06,0.1287692309999997
5.482038462,3.181024743747818e-06,3.195163770039675e-06,2.862945438194211e-06,3.038540641122313e-06,5.66079114409161e-05,2.618401713879416e-06,0.12928846199999988
5.482557692,3.18513605158301e-06,3.1985171563737778e-06,2.8615209747718458e-06,3.030484746674715e-06,5.721739350122024e-05,2.6191762557982792e-06,0.12980769199999997
5.483076923,3.186502288369116e-06,3.1948793638374525e-06,2.8610866339121026e-06,3.02934060775517e-06,5.772101373458852e-05,2.6229209287171726e-06,0.13032692299999926
5.483596154,3.183423283884131e-06,3.1840556672632578e-06,2.860837495614581e-06,3.026722712768456e-06,5.7919186478612336e-05,2.632837864031552e-06,0.13084615399999944
5.484115385,3.177295985478185e-06,3.175805251791276e-06,2.8633540638140888e-06,3.0197436041578927e-06,5.7907713736187577e-05,2.637351929146457e-06,0.1313653849999996
5.484634615,3.1744722721371377e-06,3.178470195752401e-06,2.881250012401025e-06,3.015566367253514e-06,5.806708633443602e-05,2.6296130369645525e-06,0.1318846149999997
5.485153846,3.1756650205842106e-06,3.1901090030607267e-06,2.909083063107384e-06,3.017048630490201e-06,5.845526816167485e-05,2.628430710246605e-06,0.13240384599999988
5.485673077,3.177994954491367e-06,3.208798431306845e-06,2.9218240205192863e-06,3.018875320251516e-06,5.8698043998748336e-05,2.649547438651248e-06,0.13292307700000006
5.486192308,3.1780354606342394e-06,3.2331885121564284e-06,2.92201691036184e-06,3.0179058101085672e-06,5.870522459017895e-05,2.6777734199926424e-06,0.13344230799999934
5.486711538,3.175041220563072e-06,3.2559422896808404e-06,2.921539017921688e-06,3.010557266348608e-06,5.88255832676573e-05,2.6916025825309296e-06,0.13396153799999944
5.487230769,3.176833420724319e-06,3.2691317121679e-06,2.907443815930929e-06,2.994946466469925e-06,5.919163914270376e-05,2.6924017248745227e-06,0.1344807689999996
5.48775,3.179753162394144e-06,3.271958628852626e-06,2.889423714369222e-06,2.979143856784335e-06,5.9514919039457065e-05,2.6921891141865666e-06,0.1349999999999998
5.488269231,3.1752390185687754e-06,3.270709726603033e-06,2.888557763670527e-06,2.9725063543649788e-06,5.957107734118459e-05,2.694069715880997e-06,0.13551923099999996
5.488788462,3.169975639981548e-06,3.2704587335603093e-06,2.8889964121567023e-06,2.975174411733469e-06,5.941396242964935e-05,2.6951140528533573e-06,0.13603846199999925
5.489307692,3.1673445884532394e-06,3.2707772979020374e-06,2.8817619699647384e-06,2.981701619298932e-06,5.916116411926558e-05,2.694854468497544e-06,0.13655769199999934
5.489826923,3.1707617307618897e-06,3.2708613157721e-06,2.8785546210615173e-06,2.985690819697736e-06,5.8928635823400016e-05,2.698250405733349e-06,0.13707692299999952
5.490346154,3.185405855790568e-06,3.2710610451143223e-06,2.878656563979116e-06,2.985501911116554e-06,5.883064735283973e-05,2.7115464147770225e-06,0.1375961539999997
5.490865385,3.1975309999268186e-06,3.2725699948486944e-06,2.8817232519096224e-06,2.9848502304939906e-06,5.887004562192937e-05,2.731727665887224e-06,0.13811538499999987
5.491384615,3.199031779705008e-06,3.2770962031176743e-06,2.888920712965796e-06,2.9859823109723543e-06,5.896550087090023e-05,2.7472785909204317e-06,0.13863461499999996
5.491903846,3.199646667736236e-06,3.281874554980997e-06,2.8928985665312023e-06,2.9970881134171786e-06,5.9028503352323e-05,2.753224621613319e-06,0.13915384599999925
5.492423077,3.200005689363752e-06,3.283383970732145e-06,2.891790012456801e-06,3.025923581038657e-06,5.898622040725588e-05,2.754726641982598e-06,0.13967307699999942
5.492942308,3.200701429186874e-06,3.2826180221180943e-06,2.8909719162451027e-06,3.0576890532769907e-06,5.881974792540116e-05,2.7558334881806373e-06,0.1401923079999996
5.493461538,3.2089691464440903e-06,3.2819437475467397e-06,2.891381561739962e-06,3.075251453638549e-06,5.864236896051061e-05,2.757452109047341e-06,0.1407115379999997
5.493980769,3.2180099753525497e-06,3.2845547071660184e-06,2.887075933457136e-06,3.0806551528828226e-06,5.863167946996076e-05,2.7599603736618334e-06,0.14123076899999987
5.4945,3.2203625729890925e-06,3.290799273346733e-06,2.8734926945265725e-06,3.0800608314072783e-06,5.879884869091884e-05,2.760854612284912e-06,0.14175000000000004
5.495019231,3.218811214181626e-06,3.2965702167825867e-06,2.8557233675010706e-06,3.079163171521408e-06,5.899724174208343e-05,2.7594164202877875e-06,0.14226923099999933
5.495538462,3.2089679020312237e-06,3.298263768524844e-06,2.845463210558452e-06,3.0781995176773226e-06,5.910706209928804e-05,2.758591664068005e-06,0.1427884619999995
5.496057692,3.192456642643856e-06,3.2925083004490425e-06,2.849985031768542e-06,3.067120750970256e-06,5.910672170615825e-05,2.75999324194711e-06,0.1433076919999996
5.496576923,3.1835420576080296e-06,3.2760215128718e-06,2.865427799132157e-06,3.0506285363640766e-06,5.8961227779930056e-05,2.7595352612811505e-06,0.14382692299999977
5.497096154,3.181811467612262e-06,3.251623029195491e-06,2.880211596266303e-06,3.0429679768597044e-06,5.863756726083519e-05,2.750824769513184e-06,0.14434615399999995
5.497615385,3.1802008109476057e-06,3.2291017703300155e-06,2.886131852185792e-06,3.04242943985387e-06,5.832289603179092e-05,2.744336798318059e-06,0.14486538499999924
5.498134615,3.181324322705101e-06,3.215374253962281e-06,2.8856668743461143e-06,3.043717143054893e-06,5.822024752909169e-05,2.7553001494382224e-06,0.14538461499999933
5.498653846,3.1824799917532604e-06,3.2091995019162503e-06,2.881900905636147e-06,3.047234304234496e-06,5.823438116224041e-05,2.7680339296274707e-06,0.1459038459999995
5.499173077,3.1823260418139224e-06,3.206578323965931e-06,2.872323117741587e-06,3.0554649143974586e-06,5.822261163175017e-05,2.7607031069034785e-06,0.14642307699999968
5.499692308,3.190737146338026e-06,3.205178583263468e-06,2.864076802102392e-06,3.0664393691105395e-06,5.822692908703624e-05,2.7396083458675456e-06,0.14694230799999985
5.500211538,3.20834771042298e-06,3.204605412583881e-06,2.8654783404499e-06,3.070112716923534e-06,5.828134984332749e-05,2.720371740819512e-06,0.14746153799999995
5.500730769,3.2251020834151494e-06,3.2050249919635063e-06,2.8676186337736757e-06,3.0673292576812627e-06,5.828969366219972e-05,2.708266392729475e-06,0.14798076899999923
5.50125,3.235941408315151e-06,3.204908021826773e-06,2.86211837271407e-06,3.0674403070861245e-06,5.81604818509159e-05,2.7024166010884016e-06,0.1484999999999994
5.501769231,3.240770456740378e-06,3.200301160134966e-06,2.854628017794942e-06,3.0681124673992192e-06,5.793052575642187e-05,2.70018572840401e-06,0.14901923099999959
5.502288462,3.241288787037507e-06,3.188826567699747e-06,2.853620034610428e-06,3.068473093980241e-06,5.7775063757804986e-05,2.695135310687345e-06,0.14953846199999976
5.502807692,3.2411642893591584e-06,3.17290230116793e-06,2.8537231287332e-06,3.0699413389563403e-06,5.7858443166850175e-05,2.6809998093676905e-06,0.15005769199999985
5.503326923,3.2415104111192465e-06,3.1581998529288267e-06,2.842696066699771e-06,3.068202607652763e-06,5.810043941183041e-05,2.6609766052717017e-06,0.15057692300000003
5.503846154,3.2411077121955268e-06,3.150205614814841e-06,2.825542818018528e-06,3.071367658821148e-06,5.821223557666069e-05,2.6471584167077576e-06,0.15109615399999932
5.504365385,3.241487146624618e-06,3.151610232107974e-06,2.817155689165984e-06,3.0869121344969134e-06,5.823027443860566e-05,2.64445805193607e-06,0.1516153849999995
5.504884615,3.242181078547277e-06,3.1640330424002543e-06,2.8174759577281917e-06,3.1019177949721133e-06,5.879483138266714e-05,2.644192203441661e-06,0.15213461499999958
5.505403846,3.2423057935757148e-06,3.1828494689765334e-06,2.8166058339104966e-06,3.10655499543104e-06,6.029680197773388e-05,2.64152478321612e-06,0.15265384599999976
5.505923077,3.241510791595765e-06,3.195602607759207e-06,2.814423568530009e-06,3.105908985281848e-06,6.215986198522045e-05,2.6401174932474045e-06,0.15317307699999994
5.506442308,3.237754267856313e-06,3.1988832540535096e-06,2.8154763748005974e-06,3.1057889162997307e-06,6.34686461368299e-05,2.642212622534794e-06,0.15369230799999922
5.506961538,3.234963087154191e-06,3.198605065308984e-06,2.8162895471377046e-06,3.1078466974761325e-06,6.38502085424049e-05,2.646773317760867e-06,0.15421153799999932
5.507480769,3.237121588475348e-06,3.197269088888828e-06,2.8141733944131784e-06,3.1078451484527395e-06,6.3865836858466e-05,2.650407136328048e-06,0.1547307689999995
5.508,3.247821635491407e-06,3.195874837009502e-06,2.813377885459548e-06,3.1067471800965417e-06,6.474544434289798e-05,2.6521825797060157e-06,0.15524999999999967
5.508519231,3.27044109995683e-06,3.1927149130527318e-06,2.815203114018166e-06,3.1142442125813497e-06,6.692719419309747e-05,2.653755058010061e-06,0.15576923099999984
5.509038462,3.2896630569687133e-06,3.1852078970965827e-06,2.8161797236280877e-06,3.1178974315797906e-06,6.908693784299148e-05,2.6543429473911016e-06,0.15628846200000002
5.509557692,3.295804445203359e-06,3.1807120978472367e-06,2.8162741422432302e-06,3.10807380318952e-06,6.98901940960231e-05,2.6513580146053195e-06,0.15680769199999922
5.510076923,3.296619599812744e-06,3.184921038613807e-06,2.819014621559102e-06,3.10282022339585e-06,6.966421762088511e-05,2.646192949840066e-06,0.1573269229999994
5.510596154,3.291494481264353e-06,3.191332435215597e-06,2.823429719260936e-06,3.10278993673944e-06,6.942459393170809e-05,2.646429504831655e-06,0.15784615399999957
5.511115385,3.2853221239741294e-06,3.195895982955232e-06,2.823391073663269e-06,3.102179232712357e-06,6.94917101186558e-05,2.651178035099595e-06,0.15836538499999975
5.511634615,3.285780006283458e-06,3.196105334528332e-06,2.8194309142518705e-06,3.10807089542119e-06,6.966132867472735e-05,2.653034955099334e-06,0.15888461499999984
5.512153846,3.288355291559619e-06,3.189883369736328e-06,2.8207462510379218e-06,3.1147486401439578e-06,6.978219047086394e-05,2.653466473987912e-06,0.15940384600000002
5.512673077,3.290155283470705e-06,3.187641611224996e-06,2.827440295239332e-06,3.118384405967604e-06,6.977539207370822e-05,2.6535472319256817e-06,0.1599230769999993
5.513192308,3.28804581109645e-06,3.1931585771062774e-06,2.8303958049734777e-06,3.123221779076204e-06,6.952609076414113e-05,2.653712762625835e-06,0.16044230799999948
5.513711538,3.2744097919127e-06,3.1931942076056286e-06,2.829993237715143e-06,3.1248729062142164e-06,6.90884057614178e-05,2.6533201690065567e-06,0.16096153799999957
5.514230769,3.250045447101116e-06,3.183935794258199e-06,2.830675806685172e-06,3.125130918522518e-06,6.877239485143512e-05,2.6481591104604687e-06,0.16148076899999975
5.51475,3.220609969653793e-06,3.1744904686267785e-06,2.8306886317190338e-06,3.131387613743364e-06,6.871800455791678e-05,2.643097434106305e-06,0.16199999999999992
5.515269231,3.189711977365947e-06,3.1704962713060013e-06,2.830889064294887e-06,3.137557298582549e-06,6.874370438058067e-05,2.6453248112493684e-06,0.1625192310000001
5.515788462,3.1710322306414653e-06,3.1702583752548123e-06,2.8294213456796874e-06,3.1379379794157037e-06,6.873056145375515e-05,2.654587686915342e-06,0.16303846199999938
5.516307692,3.16830406802864e-06,3.1703009842484256e-06,2.8222407084068936e-06,3.136957758812473e-06,6.871935685516401e-05,2.665009370957852e-06,0.16355769199999948
5.516826923,3.1657307154151687e-06,3.170893564183909e-06,2.8183070067147683e-06,3.136883040860324e-06,6.872578943665632e-05,2.671420117692721e-06,0.16407692299999965
5.517346154,3.1588588724055507e-06,3.174246359636593e-06,2.820078199282261e-06,3.139882522600777e-06,6.873199585587181e-05,2.6740112008342314e-06,0.16459615399999983
5.517865385,3.149589405429237e-06,3.1793477959191883e-06,2.818439147662312e-06,3.143424139484528e-06,6.871435744046237e-05,2.676651549910073e-06,0.165115385
5.518384615,3.1362126313751766e-06,3.1796536901781304e-06,2.817085556409972e-06,3.137473008971775e-06,6.860265528137046e-05,2.680472489268676e-06,0.1656346150000001
5.518903846,3.1266725852994037e-06,3.1744189054870223e-06,2.819660498594795e-06,3.128773776314428e-06,6.836095503658099e-05,2.6795193551418208e-06,0.16615384599999938
5.519423077,3.1255377565008096e-06,3.1715464542925573e-06,2.821108884471181e-06,3.12714338234873e-06,6.806947682068455e-05,2.675539219494024e-06,0.16667307699999956
5.519942308,3.126745304943249e-06,3.1715139168029027e-06,2.8210018075761104e-06,3.125567917222435e-06,6.783102477282003e-05,2.6768907379552604e-06,0.16719230799999973
5.520461538,3.127469387076864e-06,3.170965179847746e-06,2.8204378350711044e-06,3.1264945027777327e-06,6.769568614986195e-05,2.6817054753603525e-06,0.16771153799999983
5.520980769,3.127988349248092e-06,3.170778136667092e-06,2.8202228755404843e-06,3.1317700069812246e-06,6.766998834681741e-05,2.6831760671022747e-06,0.168230769
5.5215,3.1279989254875053e-06,3.172658333480412e-06,2.820838635594627e-06,3.132294955568919e-06,6.764749000385506e-05,2.6805062920482664e-06,0.1687499999999993
5.522019231,3.124307018003161e-06,3.175961474487039e-06,2.821090001061766e-06,3.1359656082338907e-06,6.740098768615401e-05,2.678429043614181e-06,0.16926923099999946
5.522538462,3.1097738280032338e-06,3.1767741754215232e-06,2.819426770072921e-06,3.1482838498361458e-06,6.694938659776731e-05,2.678459172130119e-06,0.16978846199999964
5.523057692,3.0821883262381104e-06,3.176439281479767e-06,2.809140832061676e-06,3.1557053269957264e-06,6.666928597040923e-05,2.6678981303588884e-06,0.17030769199999973
5.523576923,3.0513528856125397e-06,3.175916633387367e-06,2.7871198594345666e-06,3.1532731278871687e-06,6.666157005710144e-05,2.6279634223239623e-06,0.1708269229999999
5.524096154,3.030821668410853e-06,3.1706983148648588e-06,2.7642471043923723e-06,3.1459474341742577e-06,6.666717392564704e-05,2.5705131924753606e-06,0.17134615400000008
5.524615385,3.02512016588267e-06,3.162190421540453e-06,2.7488247304530262e-06,3.1402152131900247e-06,6.663042357242848e-05,2.5377504671669566e-06,0.17186538499999937
5.525134615,3.022049458609315e-06,3.1537329953200733e-06,2.738857497638699e-06,3.140585146719416e-06,6.662535956344311e-05,2.539735137294983e-06,0.17238461499999946
5.525653846,3.0035179822346907e-06,3.144165168661638e-06,2.732746140213988e-06,3.141559998278543e-06,6.661849844236647e-05,2.549264834830403e-06,0.17290384599999964
5.526173077,2.9725444135883685e-06,3.1319229340087376e-06,2.732645340721953e-06,3.138159314451544e-06,6.658341796843135e-05,2.5493015363468388e-06,0.17342307699999981
5.526692308,2.947921768436189e-06,3.119515433338644e-06,2.7380602097903657e-06,3.132485034391174e-06,6.652629243001695e-05,2.5400826245755658e-06,0.173942308
5.527211538,2.93536506639494e-06,3.1131745071485828e-06,2.743535887997925e-06,3.125619858665633e-06,6.6430483271744e-05,2.5325784319861563e-06,0.17446153800000008
5.527730769,2.929468014998996e-06,3.1163770951036645e-06,2.7440122438416517e-06,3.1135057586417184e-06,6.627974071450238e-05,2.531078460776397e-06,0.17498076899999937
5.52825,2.924069518263825e-06,3.1243737831161426e-06,2.7391082276664595e-06,3.091742354423878e-06,6.612433536159065e-05,2.5279738093559007e-06,0.17549999999999955
5.528769231,2.9111164669590587e-06,3.124773607499198e-06,2.740465961645936e-06,3.065401288222951e-06,6.604900271157066e-05,2.5233918240055343e-06,0.17601923099999972
5.529288462,2.8880000203050943e-06,3.109529467878265e-06,2.7569195306712445e-06,3.0449384340800782e-06,6.604377526266592e-05,2.520867296324448e-06,0.1765384619999999
5.529807692,2.8628959637406782e-06,3.086813119491051e-06,2.7740951197224e-06,3.0340297014760915e-06,6.60404154328523e-05,2.518430857190356e-06,0.177057692
5.530326923,2.846937019148352e-06,3.070389407449147e-06,2.777502688047891e-06,3.029189196162449e-06,6.603158607623337e-05,2.513591021432925e-06,0.17757692299999928
5.530846154,2.8457443811948075e-06,3.0632685031110475e-06,2.774196278184822e-06,3.0258594824916343e-06,6.60315653155669e-05,2.5074312924211e-06,0.17809615399999945
5.531365385,2.8472597277460564e-06,3.061107481985567e-06,2.7745511225136607e-06,3.0200181652908707e-06,6.602904627410232e-05,2.504206220407464e-06,0.17861538499999963
5.531884615,2.83822672115498e-06,3.0612877430890887e-06,2.775049390205293e-06,3.0080568528391875e-06,6.60197335566171e-05,2.504177667886723e-06,0.17913461499999972
5.532403846,2.829593439717774e-06,3.0640644725783235e-06,2.769081435108934e-06,2.994589173219714e-06,6.600964670014177e-05,2.503005820626754e-06,0.1796538459999999
5.532923077,2.828583892486796e-06,3.0683465945166746e-06,2.759407254391651e-06,2.9911585973239747e-06,6.599990026202494e-05,2.498867998120348e-06,0.18017307700000007
5.533442308,2.8308161417994387e-06,3.0683079845489664e-06,2.754194416538102e-06,2.996425371184284e-06,6.598984427558793e-05,2.4922940434972388e-06,0.18069230799999936
5.533961538,2.825077038012573e-06,3.0582372631752142e-06,2.7556324331368176e-06,2.986426359277738e-06,6.598328956952875e-05,2.485019688650543e-06,0.18121153799999945
5.534480769,2.8026336525188527e-06,3.0374799342411566e-06,2.74741686444374e-06,2.9271857722677142e-06,6.598199180191176e-05,2.4800534816858293e-06,0.18173076899999963
5.535,2.786766035113561e-06,3.0058117008744368e-06,2.710210895873408e-06,2.8119235983421284e-06,6.598225791473508e-05,2.478856973099812e-06,0.1822499999999998
5.535519231,2.7884599807940376e-06,2.959189848702916e-06,2.6574984939832696e-06,2.677596639821492e-06,6.59822690680834e-05,2.4797735251310546e-06,0.18276923099999998
5.536038462,2.794203189348142e-06,2.896407204301896e-06,2.6202055438014645e-06,2.5512078669417484e-06,6.598115125634267e-05,2.4788568315335925e-06,0.18328846199999926
5.536557692,2.7982564089955426e-06,2.830464785868308e-06,2.605366559347284e-06,2.4343691262812924e-06,6.597202835543065e-05,2.478592580825454e-06,0.18380769199999936
5.537076923,2.7677752808711904e-06,2.78498976842566e-06,2.6009563085260846e-06,2.337332620729317e-06,6.593442495594616e-05,2.4866620070397214e-06,0.18432692299999953
5.537596154,2.689318440658593e-06,2.766316299451002e-06,2.5975241610582805e-06,2.262708011066062e-06,6.584956378013084e-05,2.497747796363108e-06,0.1848461539999997
5.538115385,2.624683921933371e-06,2.7596309555073016e-06,2.592832587190292e-06,2.2200027099293475e-06,6.572641558185199e-05,2.501339797644815e-06,0.18536538499999988
5.538634615,2.6094333321163486e-06,2.756043808911285e-06,2.589368183190319e-06,2.2184324254914875e-06,6.559515228448407e-05,2.5011024766426902e-06,0.18588461499999998
5.539153846,2.6096495404468515e-06,2.7544159365724397e-06,2.5903314127089416e-06,2.2271662103791346e-06,6.548735240676183e-05,2.5012501949463595e-06,0.18640384599999926
5.539673077,2.60530159032706e-06,2.7576752503395205e-06,2.592566920256455e-06,2.222647143494138e-06,6.542304994404852e-05,2.4944552203532223e-06,0.18692307699999944
5.540192308,2.603060505509808e-06,2.761491248419552e-06,2.590762437538388e-06,2.211385555218024e-06,6.539720445781018e-05,2.479916780337309e-06,0.1874423079999996
5.540711538,2.6030649731748666e-06,2.7592461831520527e-06,2.5889596650136523e-06,2.202341318073131e-06,6.538689596021124e-05,2.471300528595809e-06,0.1879615379999997
5.541230769,2.602441915177408e-06,2.761899476765526e-06,2.590222540575144e-06,2.1949236087202758e-06,6.537011488689559e-05,2.471497989319213e-06,0.18848076899999988
5.54175,2.602143872280164e-06,2.7700030283719382e-06,2.5932366005556767e-06,2.1863386528000927e-06,6.531636049614831e-05,2.4679284701751137e-06,0.18900000000000006
5.542269231,2.6028769810592986e-06,2.774578637054463e-06,2.6016963029859217e-06,2.17188538454198e-06,6.520909946908605e-05,2.4590270094404306e-06,0.18951923099999934
5.542788462,2.605480033513119e-06,2.778755185586144e-06,2.6135496854945294e-06,2.158137837231378e-06,6.509106679467402e-05,2.452442979763132e-06,0.19003846199999952
5.543307692,2.6079936496481136e-06,2.7810435882519176e-06,2.622491575217052e-06,2.1597430317075048e-06,6.501408125132241e-05,2.448245490465236e-06,0.1905576919999996
5.543826923,2.608073144934773e-06,2.7797824640940736e-06,2.6292960366111618e-06,2.159084910665456e-06,6.497687850110893e-05,2.4435782010901465e-06,0.1910769229999998
5.544346154,2.6078904961981416e-06,2.781814830263808e-06,2.6353795297964794e-06,2.1533155022304102e-06,6.495393518713083e-05,2.4382531264880346e-06,0.19159615399999996
5.544865385,2.607297398203259e-06,2.7918499281790123e-06,2.641200691531212e-06,2.1561326885946637e-06,6.493013638254301e-05,2.4331852061908943e-06,0.19211538499999925
5.545384615,2.601430277278806e-06,2.8091364936493203e-06,2.6469342841209367e-06,2.156723182355709e-06,6.490809850751002e-05,2.4311711423249217e-06,0.19263461499999934
5.545903846,2.588254053265031e-06,2.82424330762921e-06,2.6491820086543685e-06,2.1541435700575865e-06,6.490045027717712e-05,2.434175757392395e-06,0.19315384599999952
5.546423077,2.572036983242647e-06,2.82749550560474e-06,2.648935970839496e-06,2.151242590056715e-06,6.489992068119144e-05,2.4390017728550018e-06,0.1936730769999997
5.546942308,2.563596598325165e-06,2.821848515402905e-06,2.6504097290011237e-06,2.1506259771690342e-06,6.488133902969611e-05,2.44250926721928e-06,0.19419230799999987
5.547461538,2.5646273075313294e-06,2.815789983213219e-06,2.652994742447778e-06,2.157898302023693e-06,6.48373182254955e-05,2.445322642583096e-06,0.19471153799999996
5.547980769,2.5550051406395007e-06,2.813787518684552e-06,2.654278443207677e-06,2.1645135667199484e-06,6.477513182233864e-05,2.448657158582985e-06,0.19523076899999925
5.5485,2.53110245896536e-06,2.813795108091732e-06,2.653484124714676e-06,2.164054824851594e-06,6.468549493511062e-05,2.451516393818907e-06,0.19574999999999942
5.549019231,2.52092163634244e-06,2.8119733134265586e-06,2.6519445038476574e-06,2.1596678082776315e-06,6.453264205267489e-05,2.4512280348046044e-06,0.1962692309999996
5.549538462,2.526879492904241e-06,2.809690705197158e-06,2.6507389677417263e-06,2.157444093577099e-06,6.428499837903164e-05,2.4498802506558582e-06,0.19678846199999978
5.550057692,2.527094974968184e-06,2.8093204958997432e-06,2.649154119458745e-06,2.165237418787748e-06,6.398387608956817e-05,2.4505729122252564e-06,0.19730769199999987
5.550576923,2.525558629060972e-06,2.8091104742603542e-06,2.6471079842057957e-06,2.1758808784589628e-06,6.374277012440309e-05,2.45001513713366e-06,0.19782692300000004
5.551096154,2.5247233001072936e-06,2.8071378867146957e-06,2.646046985491851e-06,2.177309173774041e-06,6.362574907763709e-05,2.448181766613466e-06,0.19834615399999933
5.551615385,2.518664276747525e-06,2.804379615245848e-06,2.6468671763394145e-06,2.1790909699448324e-06,6.359191814188755e-05,2.4478907172194963e-06,0.1988653849999995
5.552134615,2.517673882717386e-06,2.801763596694252e-06,2.6478566431872007e-06,2.1864652207784845e-06,6.358253864514647e-05,2.447824070162248e-06,0.1993846149999996
5.552653846,2.5133655554386657e-06,2.798481476211173e-06,2.6456635125331083e-06,2.1854247227278334e-06,6.357377064711671e-05,2.448215025370255e-06,0.19990384599999977
5.553173077,2.49436512711369e-06,2.7944646649507905e-06,2.6392409051969048e-06,2.179986972968247e-06,6.356011892176276e-05,2.4493952224185724e-06,0.20042307699999995
5.553692308,2.4818611829114967e-06,2.792460200152692e-06,2.63217980321542e-06,2.179977915779222e-06,6.354993945853691e-05,2.449109517163074e-06,0.20094230799999924
5.554211538,2.485911268016853e-06,2.794098868448496e-06,2.6289969594793544e-06,2.1730097120857056e-06,6.354880819738977e-05,2.4465500936041e-06,0.20146153799999933
5.554730769,2.490372606814953e-06,2.7946761944551e-06,2.6285228166505053e-06,2.162843711054059e-06,6.354701277198233e-05,2.443036121559574e-06,0.2019807689999995
5.55525,2.489767782812749e-06,2.793625847224491e-06,2.6268711956446484e-06,2.1621478820831298e-06,6.354036051964905e-05,2.440343950001128e-06,0.20249999999999968
5.555769231,2.48893836427712e-06,2.795822957809785e-06,2.62596344520579e-06,2.1601586524062853e-06,6.353463598320393e-05,2.4389430586187264e-06,0.20301923099999986
5.556288462,2.4900654548932423e-06,2.797278700220071e-06,2.62667898527886e-06,2.1558634943521687e-06,6.35319783480168e-05,2.438554257021395e-06,0.20353846200000003
5.556807692,2.493630375461479e-06,2.7966564427619205e-06,2.62670813212384e-06,2.155527111746048e-06,6.353010266247372e-05,2.43965308094667e-06,0.20405769199999924
5.557326923,2.497231255160504e-06,2.799748693692861e-06,2.629970651185836e-06,2.1564390849037847e-06,6.352418881917603e-05,2.442121024435972e-06,0.2045769229999994
5.557846154,2.497814110522826e-06,2.810210771711229e-06,2.6333192285641177e-06,2.1680456783441814e-06,6.349921925480707e-05,2.4454991184932177e-06,0.2050961539999996
5.558365385,2.496906375384861e-06,2.8337322211464947e-06,2.629650177576648e-06,2.185815627661025e-06,6.342993237981572e-05,2.446802828570205e-06,0.20561538499999976
5.558884615,2.4997634711329583e-06,2.875747735714972e-06,2.627915193034821e-06,2.187908710549177e-06,6.331156605992985e-05,2.438516091260138e-06,0.20613461499999985
5.559403846,2.5030964704634968e-06,2.937323636146153e-06,2.6303027095245726e-06,2.189347736165749e-06,6.318462571255476e-05,2.415872244910706e-06,0.20665384600000003
5.559923077,2.497139660782057e-06,3.0079311835712854e-06,2.629358623488094e-06,2.2065331910371235e-06,6.309927449223061e-05,2.3869250337627528e-06,0.20717307699999932
5.560442308,2.4860717084915045e-06,3.063723589667123e-06,2.628924026752117e-06,2.219463084345201e-06,6.30675458764257e-05,2.36731794386587e-06,0.2076923079999995
5.560961538,2.4802268813899697e-06,3.090406898234365e-06,2.6272283233527883e-06,2.2215045140068964e-06,6.30652619801649e-05,2.361080370910545e-06,0.20821153799999959
5.561480769,2.47804905221874e-06,3.097136358168656e-06,2.621678725719188e-06,2.2221940077236813e-06,6.306083718190417e-05,2.361016241046174e-06,0.20873076899999976
5.562,2.477257750427724e-06,3.0980416986089503e-06,2.622941290745693e-06,2.223242825076092e-06,6.303747644356155e-05,2.363442497521206e-06,0.20924999999999994
5.562519231,2.480870428255897e-06,3.1009387436888947e-06,2.6297159478151467e-06,2.224256406301637e-06,6.29993243006531e-05,2.366198520678657e-06,0.20976923099999922
5.563038462,2.485413636262941e-06,3.108434683966206e-06,2.631738324353192e-06,2.2245093130555707e-06,6.29624960725299e-05,2.364723875676816e-06,0.2102884619999994
5.563557692,2.485073463803906e-06,3.114748747974103e-06,2.6317561669449063e-06,2.2244508871561927e-06,6.294204258723798e-05,2.3604350006620327e-06,0.2108076919999995
5.564076923,2.4845530381124987e-06,3.1145138661914266e-06,2.630454839967899e-06,2.224374526097779e-06,6.293870986602066e-05,2.357733908912796e-06,0.21132692299999967
5.564596154,2.490355948653614e-06,3.1107021102838475e-06,2.626112448307842e-06,2.225105541313089e-06,6.293864299771349e-05,2.355840823254149e-06,0.21184615399999984
5.565115385,2.4977117082130304e-06,3.1095453535037747e-06,2.62749876604182e-06,2.236250616179153e-06,6.293783548800473e-05,2.3524357779340963e-06,0.21236538500000002
5.565634615,2.4985445165354112e-06,3.111897257207106e-06,2.632221939377237e-06,2.2593423172877483e-06,6.286813964424205e-05,2.34820308991468e-06,0.21288461499999922
5.566153846,2.492554906417648e-06,3.1126222433571226e-06,2.630905184024002e-06,2.2756893522966517e-06,6.251271840867082e-05,2.3475262209127875e-06,0.2134038459999994
5.566673077,2.485870419373028e-06,3.110640844955592e-06,2.629708814640102e-06,2.278949316113224e-06,6.189429432746602e-05,2.3504507217081497e-06,0.21392307699999957
5.567192308,2.4818934095998256e-06,3.108646879394033e-06,2.63050281813096e-06,2.279737373610617e-06,6.149482566793045e-05,2.3551372115290272e-06,0.21444230799999975
5.567711538,2.478694577050008e-06,3.108028692186085e-06,2.6320227368866413e-06,2.2800710565072715e-06,6.14625354592679e-05,2.363292098066675e-06,0.21496153799999984
5.568230769,2.473735764016689e-06,3.108007341450782e-06,2.630499004009024e-06,2.279726915105921e-06,6.137551738416173e-05,2.371218258176081e-06,0.21548076900000002
5.56875,2.4642740605564102e-06,3.107584370275151e-06,2.6143864317834656e-06,2.279781895293093e-06,6.107404332275157e-05,2.374284500472297e-06,0.2159999999999993
5.569269231,2.4500279158009205e-06,3.1101509709468457e-06,2.6062823283039605e-06,2.283013178169519e-06,6.07723272085921e-05,2.368347832962382e-06,0.21651923099999948
5.569788462,2.4365741945349986e-06,3.1135542246077018e-06,2.6347030011442977e-06,2.2941573200648727e-06,6.058921285482953e-05,2.349394868614529e-06,0.21703846199999965
5.570307692,2.430239999086418e-06,3.112391926182864e-06,2.675859924945712e-06,2.300907179020611e-06,6.049513214127466e-05,2.3266433293521068e-06,0.21755769199999975
5.570826923,2.4300738194321217e-06,3.11186681781928e-06,2.6998936011396725e-06,2.2931936511247653e-06,6.045268343261906e-05,2.313349706993235e-06,0.21807692299999992
5.571346154,2.425259618992956e-06,3.1124639268808864e-06,2.707084804015813e-06,2.2853982004535417e-06,6.044244000816172e-05,2.3096262624147087e-06,0.2185961540000001
5.571865385,2.4050752328404363e-06,3.1066674825892256e-06,2.7049322212969334e-06,2.28437830333366e-06,6.044236877166088e-05,2.3089958580393776e-06,0.21911538499999939
5.572384615,2.378233531571844e-06,3.0959748373118307e-06,2.704234369057452e-06,2.283022388725628e-06,6.0442393071110256e-05,2.3061512029934856e-06,0.21963461499999948
5.572903846,2.3618805361819053e-06,3.088362476875388e-06,2.71152613782746e-06,2.2818661963727757e-06,6.043044646531747e-05,2.298365473678332e-06,0.22015384599999965
5.573423077,2.354751918189647e-06,3.087163397277031e-06,2.7159545406493195e-06,2.2829545657977884e-06,6.035327572910084e-05,2.2900291577341847e-06,0.22067307699999983
5.573942308,2.350371085828512e-06,3.089249161512616e-06,2.7083280415625272e-06,2.2893366783486656e-06,6.018621924625181e-05,2.28776088947956e-06,0.221192308
5.574461538,2.341642575139736e-06,3.091191698646241e-06,2.692174785599184e-06,2.3034357483821422e-06,5.999754188661539e-05,2.2879144763727514e-06,0.2217115380000001
5.574980769,2.3105412487959724e-06,3.0904050401757417e-06,2.6712911769362004e-06,2.3169297450041424e-06,5.987701365503205e-05,2.279002939440483e-06,0.22223076899999938
5.5755,2.261385125853457e-06,3.088684498686661e-06,2.649300448991434e-06,2.323512059462626e-06,5.985336651579601e-05,2.257203865905878e-06,0.22274999999999956
5.576019231,2.2245964511523103e-06,3.0887753495138003e-06,2.6342999735972346e-06,2.323385149658221e-06,5.983117543413119e-05,2.234842706329312e-06,0.22326923099999973
5.576538462,2.210229058069628e-06,3.08689844614747e-06,2.628623067957782e-06,2.3196696111514e-06,5.956102704004497e-05,2.227535159279877e-06,0.2237884619999999
5.577057692,2.2057170490940323e-06,3.0840525750543484e-06,2.6286047214387484e-06,2.3216722709056545e-06,5.893676291803358e-05,2.230326437174309e-06,0.224307692
5.577576923,2.198707514973709e-06,3.0829183063710304e-06,2.631686099523472e-06,2.327050894275876e-06,5.838110506855929e-05,2.2256168591563083e-06,0.2248269229999993
5.578096154,2.1886627831143085e-06,3.0784251808067e-06,2.629683100225662e-06,2.3189687393401514e-06,5.826937689039604e-05,2.212662019837274e-06,0.22534615399999947
5.578615385,2.1839470460546478e-06,3.0654096024893333e-06,2.6189938524728976e-06,2.301899447797612e-06,5.822362093842436e-05,2.2033391069396902e-06,0.22586538499999964
5.579134615,2.1845911519479256e-06,3.0464773116349367e-06,2.6124486260260007e-06,2.2960082342642587e-06,5.788538702154762e-05,2.20117446569654e-06,0.22638461499999973
5.579653846,2.1851097765345637e-06,3.0291228743228742e-06,2.6139384424861634e-06,2.2967586316828243e-06,5.7459460110011445e-05,2.20115104083407e-06,0.2269038459999999
5.580173077,2.1850928630979573e-06,3.016460827553956e-06,2.613399343281846e-06,2.2933035912515444e-06,5.714407644522845e-05,2.199673488855476e-06,0.22742307700000008
5.580692308,2.1864545745483e-06,3.0053230850251654e-06,2.6181362672940987e-06,2.292167810728832e-06,5.693204077585011e-05,2.198020172931259e-06,0.22794230799999937
5.581211538,2.1900717459248883e-06,2.9922537789173527e-06,2.6308636663443496e-06,2.2936928762618807e-06,5.6823877465856886e-05,2.1979677377747697e-06,0.22846153799999946
5.581730769,2.19294064351752e-06,2.9780612721400925e-06,2.629960384069446e-06,2.294915570699063e-06,5.6819225986431566e-05,2.198508422483629e-06,0.22898076899999964
5.58225,2.19287103902504e-06,2.9681896644413736e-06,2.6158557514884385e-06,2.2979461537579933e-06,5.6732671573924216e-05,2.1983453191732245e-06,0.22949999999999982
5.582769231,2.2089236112469782e-06,2.9665451492725634e-06,2.607952895142328e-06,2.2936567153184267e-06,5.637380127563965e-05,2.1976264914084075e-06,0.230019231
5.583288462,2.2537176603849627e-06,2.966717337882532e-06,2.607970293330097e-06,2.282741687928263e-06,5.5846384491244365e-05,2.1958864511834564e-06,0.23053846199999928
5.583807692,2.2854343204258824e-06,2.960646700473876e-06,2.612297360515143e-06,2.2788040438434107e-06,5.5366727849865866e-05,2.1952304814145016e-06,0.23105769199999937
5.584326923,2.28429960125033e-06,2.953873300585771e-06,2.626430007393168e-06,2.27880154104117e-06,5.50396987147013e-05,2.1998464085804843e-06,0.23157692299999955
5.584846154,2.287337700047606e-06,2.9543203180212496e-06,2.655326803342134e-06,2.2782701237708127e-06,5.488907093249548e-05,2.2030579302849315e-06,0.23209615399999972
5.585365385,2.291968465660114e-06,2.959020975572205e-06,2.692482881300279e-06,2.2779475264958557e-06,5.48719238435198e-05,2.202182458742657e-06,0.2326153849999999
5.585884615,2.2780634963409955e-06,2.9634371338606416e-06,2.720178663794526e-06,2.2771577133802058e-06,5.4846716508765015e-05,2.202020843427564e-06,0.233134615
5.586403846,2.2611595081073662e-06,2.966140758174604e-06,2.720805400295531e-06,2.2775531557331405e-06,5.470184435416626e-05,2.19539583008796e-06,0.23365384599999928
5.586923077,2.2525531687498658e-06,2.9640725201275e-06,2.6903785781517545e-06,2.272536379451984e-06,5.450119554018032e-05,2.1890269502326184e-06,0.23417307699999945
5.587442308,2.2520296352948062e-06,2.9552823561118827e-06,2.6478167670432853e-06,2.259154164350688e-06,5.4371859963585536e-05,2.1926388680833594e-06,0.23469230799999963
5.587961538,2.246591753008352e-06,2.942750942788207e-06,2.619515733497173e-06,2.250771345924037e-06,5.433459778115442e-05,2.19013362615556e-06,0.23521153799999972
5.588480769,2.222173123340373e-06,2.9296194167577125e-06,2.613058521761695e-06,2.250042793085762e-06,5.4332597600733405e-05,2.1805841686799465e-06,0.2357307689999999
5.589,2.196499696274796e-06,2.9142904564336003e-06,2.623769123677568e-06,2.2511279217486487e-06,5.4332451071297793e-05,2.1787608139214747e-06,0.23625000000000007
5.589519231,2.189503520658293e-06,2.8912333791507994e-06,2.6395754680262555e-06,2.259184573600296e-06,5.433239644403138e-05,2.1763580318471896e-06,0.23676923099999936
5.590038462,2.189373825332358e-06,2.859224296169875e-06,2.642370966943075e-06,2.2683440167896955e-06,5.432467599933661e-05,2.1658925581049302e-06,0.23728846199999953
5.590557692,2.1864799384302483e-06,2.8278216718355804e-06,2.632372710922024e-06,2.2682170307062102e-06,5.43025925638938e-05,2.162363447222025e-06,0.23780769199999963
5.591076923,2.1909211866908617e-06,2.8076729783884847e-06,2.6223726837823626e-06,2.2663596296059204e-06,5.428152022656525e-05,2.172207113584994e-06,0.2383269229999998
5.591596154,2.2050321015254547e-06,2.798971920135661e-06,2.615810973017312e-06,2.2666330123730858e-06,5.427513267009652e-05,2.18317873898472e-06,0.23884615399999998
5.592115385,2.217227304768733e-06,2.795704303051437e-06,2.610750220793572e-06,2.2639201080047694e-06,5.427543913874361e-05,2.186264243527616e-06,0.23936538499999926
5.592634615,2.221987418987202e-06,2.7941582705696867e-06,2.6044941758605884e-06,2.2606620276169502e-06,5.4272099608884215e-05,2.1818697359900484e-06,0.23988461499999936
5.593153846,2.2216801157694822e-06,2.793836260006054e-06,2.594038044269705e-06,2.2601980200715302e-06,5.426001062267615e-05,2.1738670113657462e-06,0.24040384599999953
5.593673077,2.219674148625609e-06,2.7929507988318103e-06,2.580592019074105e-06,2.261168112660043e-06,5.4229403306642415e-05,2.1675544677888205e-06,0.2409230769999997
5.594192308,2.2208827668576435e-06,2.7836003521812828e-06,2.572877979966897e-06,2.2632870540299734e-06,5.417118008341312e-05,2.166713891992449e-06,0.24144230799999988
5.594711538,2.2298107642633352e-06,2.7641787819455693e-06,2.573322112122288e-06,2.2644436712135565e-06,5.410108249380722e-05,2.167287798623667e-06,0.24196153799999998
5.595230769,2.242573957256154e-06,2.7476419050864253e-06,2.5722785361941107e-06,2.2588714455831624e-06,5.405453784477172e-05,2.163198139345595e-06,0.24248076899999926
5.59575,2.245795242085019e-06,2.7396568437690102e-06,2.569233686825771e-06,2.250258246671429e-06,5.403926434738482e-05,2.157474751023341e-06,0.24299999999999944
5.596269231,2.243209590963545e-06,2.7330272913139345e-06,2.568133939629369e-06,2.2471147312518883e-06,5.403548287111608e-05,2.1544249314026185e-06,0.24351923099999961
5.596788462,2.246961458438212e-06,2.721298253641945e-06,2.567733876757284e-06,2.2475671742726222e-06,5.402882862176749e-05,2.153744441714599e-06,0.2440384619999998
5.597307692,2.246132065518001e-06,2.6995565354464198e-06,2.5682390510781385e-06,2.2480371584227383e-06,5.400141411332648e-05,2.153258032240364e-06,0.24455769199999988
5.597826923,2.240805761370541e-06,2.6691092448126752e-06,2.556540439008529e-06,2.249244294919784e-06,5.393960626809167e-05,2.1490053238135697e-06,0.24507692300000006
5.598346154,2.247953137178927e-06,2.6394665200687583e-06,2.52232126623701e-06,2.253151500246223e-06,5.386434180926932e-05,2.1415308035103697e-06,0.24559615399999934
5.598865385,2.259011169322332e-06,2.617228250798917e-06,2.4895806176194154e-06,2.256711017615613e-06,5.380789838528253e-05,2.13436147526511e-06,0.24611538499999952
5.599384615,2.260473307360997e-06,2.60166604388154e-06,2.48471976638233e-06,2.255107862129566e-06,5.37786307244551e-05,2.125928997346701e-06,0.2466346149999996
5.599903846,2.262934391568595e-06,2.589959698177354e-06,2.50020304661182e-06,2.2579241683576885e-06,5.377097440222133e-05,2.1088819727096345e-06,0.2471538459999998
5.600423077,2.2748156258566786e-06,2.580921062899873e-06,2.516223780231136e-06,2.268340791502782e-06,5.376972585255436e-05,2.0771611509621342e-06,0.24767307699999996
5.600942308,2.2878031613806908e-06,2.5745776706244094e-06,2.524644697249173e-06,2.272760574687464e-06,5.370607658976015e-05,2.0397183599152622e-06,0.24819230799999925
5.601461538,2.29486023911806e-06,2.570596469302485e-06,2.525904011327726e-06,2.2720103315515903e-06,5.346065205192896e-05,2.0162883025088608e-06,0.24871153799999934
5.601980769,2.294906159045682e-06,2.5680379676234023e-06,2.523298080712924e-06,2.2720703658124687e-06,5.3040739336702775e-05,2.0116579455048583e-06,0.24923076899999952
5.6025,2.293384047278855e-06,2.566621157713908e-06,2.5212146733844105e-06,2.2734937553055576e-06,5.263713854351003e-05,2.013173455146978e-06,0.2497499999999997
5.603019231,2.298988740177573e-06,2.566453327059472e-06,2.521144058092995e-06,2.2819090381443625e-06,5.235041831703322e-05,2.0116123212417665e-06,0.25026923099999987
5.603538462,2.303423296544487e-06,2.5664534469803096e-06,2.520835830785784e-06,2.2890242652948207e-06,5.208654728795935e-05,2.008678468475587e-06,0.25078846200000005
5.604057692,2.298441960984367e-06,2.567567648849017e-06,2.5213572883376364e-06,2.286596474696634e-06,5.169451787161736e-05,2.009234297663925e-06,0.25130769199999925
5.604576923,2.295546906109592e-06,2.569515991953403e-06,2.5252758696920583e-06,2.2884653934812984e-06,5.1162524240402014e-05,2.0087952100081357e-06,0.2518269229999994
5.605096154,2.2956834449788245e-06,2.569670082744258e-06,2.530167744542772e-06,2.298312312529453e-06,5.0779146683015096e-05,1.998362661992824e-06,0.2523461539999996
5.605615385,2.2949342316272864e-06,2.571426822329944e-06,2.534086214736703e-06,2.305132982515752e-06,5.071937056635596e-05,1.984322617933622e-06,0.2528653849999998
5.606134615,2.301877556236286e-06,2.5761971831979665e-06,2.531904969474569e-06,2.3076438720948483e-06,5.066223789569582e-05,1.9819973745481606e-06,0.25338461499999987
5.606653846,2.3104577276921083e-06,2.578903882698081e-06,2.5195637031473568e-06,2.3090536105570407e-06,5.025699919749634e-05,1.9921913724377058e-06,0.25390384600000004
5.607173077,2.30761835683573e-06,2.5766893545727357e-06,2.5091301230440757e-06,2.3095026860657025e-06,4.951798160804786e-05,1.9998366584384057e-06,0.25442307699999933
5.607692308,2.3002850923810585e-06,2.568666819686056e-06,2.508256897076357e-06,2.3084705489906663e-06,4.867046976038409e-05,1.9980915516040225e-06,0.2549423079999995
5.608211538,2.299631045277024e-06,2.555964438033784e-06,2.5103210249294475e-06,2.305513584370396e-06,4.7999082962962095e-05,1.9911601372498466e-06,0.2554615379999996
5.608730769,2.3017562216759234e-06,2.539398534599469e-06,2.515616871631305e-06,2.303327557469633e-06,4.773893891210759e-05,1.978417119113129e-06,0.2559807689999998
5.60925,2.301369842003634e-06,2.519723817616512e-06,2.5180233459223348e-06,2.3039143707045966e-06,4.775826285950453e-05,1.968164612003783e-06,0.25649999999999995
5.609769231,2.3028798739283085e-06,2.500281105628489e-06,2.497924817541393e-06,2.3046042588407017e-06,4.757679337217458e-05,1.9691233699816035e-06,0.25701923099999924
5.610288462,2.307277753362072e-06,2.4788419804257494e-06,2.4655867834103093e-06,2.3059403572485787e-06,4.7101141510505416e-05,1.964585699020438e-06,0.2575384619999994
5.610807692,2.309765042837403e-06,2.450912228156775e-06,2.4599172578896817e-06,2.307758659265681e-06,4.683031013539745e-05,1.9383582419608915e-06,0.2580576919999995
5.611326923,2.3103942566925365e-06,2.4160567618746007e-06,2.480882064083352e-06,2.307314285152185e-06,4.692210193569115e-05,1.9067656629448348e-06,0.2585769229999997
5.611846154,2.3095295548064244e-06,2.3826567910761137e-06,2.4952635952240256e-06,2.3131180917058254e-06,4.6876012891900895e-05,1.8924732509996188e-06,0.25909615399999986
5.612365385,2.3048304052120467e-06,2.3645919114773253e-06,2.498364802990628e-06,2.3268337911567902e-06,4.645260668230447e-05,1.8907038096766911e-06,0.25961538500000003
5.612884615,2.300653019588444e-06,2.361497370715366e-06,2.4998127313555017e-06,2.3332469678263803e-06,4.6005381904007446e-05,1.8908788361294127e-06,0.26013461499999924
5.613403846,2.300646796761582e-06,2.363774666195496e-06,2.498665667290005e-06,2.332646144498036e-06,4.581586723635828e-05,1.8912859737698533e-06,0.2606538459999994
5.613923077,2.2998085388736965e-06,2.3669144959192246e-06,2.506353676570112e-06,2.331519501769941e-06,4.579631262560677e-05,1.891203473950286e-06,0.2611730769999996
5.614442308,2.302876007080556e-06,2.369220901202459e-06,2.5429468118620457e-06,2.324691977158628e-06,4.584966327822008e-05,1.8914354752343904e-06,0.26169230799999976
5.614961538,2.313410381771504e-06,2.370174930408259e-06,2.602968793537039e-06,2.318316150312018e-06,4.603199935267544e-05,1.8865887729048385e-06,0.26221153799999986
5.615480769,2.314647936394068e-06,2.370530816903413e-06,2.649928932122412e-06,2.318040592109544e-06,4.6345490739078766e-05,1.8667038769551177e-06,0.26273076900000003
5.616,2.3061476209189666e-06,2.369780150817118e-06,2.662029239749811e-06,2.318207066465952e-06,4.664988308134396e-05,1.833931382465352e-06,0.2632499999999993
5.616519231,2.304133373397227e-06,2.3662969469733347e-06,2.6560200544555434e-06,2.3166882863181988e-06,4.6832088426958655e-05,1.804230278629576e-06,0.2637692309999995
5.617038462,2.303814584226718e-06,2.3616471809625386e-06,2.651582678981948e-06,2.303611371883422e-06,4.691701719979841e-05,1.7886238034066713e-06,0.26428846199999967
5.617557692,2.3029550343002884e-06,2.3590780137251896e-06,2.652633184119153e-06,2.2742309350271583e-06,4.6982254150701405e-05,1.783499825214554e-06,0.26480769199999976
5.618076923,2.3048197314289392e-06,2.3582335316780066e-06,2.653469775633025e-06,2.242486720908377e-06,4.7056735814984e-05,1.7815805587562446e-06,0.26532692299999994
5.618596154,2.2953549493703665e-06,2.357394534934384e-06,2.6498455200261864e-06,2.2207985819345e-06,4.710379952598064e-05,1.779843075459452e-06,0.2658461539999992
5.619115385,2.282243470585254e-06,2.357150989635264e-06,2.653317634044993e-06,2.2136522850087144e-06,4.705551796237138e-05,1.779009039372757e-06,0.2663653849999994
5.619634615,2.2843637743388163e-06,2.357184840707207e-06,2.675928066905094e-06,2.215080897215997e-06,4.689287323267664e-05,1.7809266794496003e-06,0.2668846149999995
5.620153846,2.2886444266654304e-06,2.352704066037901e-06,2.70684081029005e-06,2.215747070221758e-06,4.670107996784522e-05,1.7819052886657162e-06,0.26740384599999967
5.620673077,2.288228339182397e-06,2.3470492991497465e-06,2.723163015749062e-06,2.215792251730311e-06,4.658270352477568e-05,1.777692599195478e-06,0.26792307699999984
5.621192308,2.29250725046154e-06,2.35194355719262e-06,2.7159655289705983e-06,2.214574062072449e-06,4.654823767748839e-05,1.7723831131856724e-06,0.268442308
5.621711538,2.3019861520251174e-06,2.3615677849380555e-06,2.6960551156904617e-06,2.210062951051105e-06,4.655544693091401e-05,1.772441786950243e-06,0.2689615379999992
5.622230769,2.3202944605356546e-06,2.363860061082384e-06,2.678919089254993e-06,2.205976673214633e-06,4.658753330139489e-05,1.77941581864823e-06,0.2694807689999994
5.62275,2.344110687748185e-06,2.3633518317348997e-06,2.6724176631672367e-06,2.2039232179845314e-06,4.665736096092677e-05,1.7804115274914338e-06,0.2699999999999996
5.623269231,2.3568324875834704e-06,2.3635470070599533e-06,2.673558113798259e-06,2.2009888650558173e-06,4.679061761131439e-05,1.7648747537057278e-06,0.27051923099999975
5.623788462,2.3599828159813765e-06,2.3630680883187145e-06,2.676187972801511e-06,2.195599534156308e-06,4.698384653135645e-05,1.7515638888127766e-06,0.2710384619999999
5.624307692,2.361737252307416e-06,2.370643609857371e-06,2.6795330571878053e-06,2.1906743196858555e-06,4.716025674996997e-05,1.7600966394880609e-06,0.271557692
5.624826923,2.353446477772446e-06,2.3966207691428745e-06,2.680085122563221e-06,2.183981831708728e-06,4.725971946670535e-05,1.7838713130693688e-06,0.2720769229999993
5.625346154,2.3358529225660925e-06,2.434539206974172e-06,2.6773426154262243e-06,2.1743485296244965e-06,4.735138586313015e-05,1.8061965148078357e-06,0.2725961539999995
5.625865385,2.320163098708978e-06,2.4636270692363136e-06,2.681175701652774e-06,2.167358592363799e-06,4.754536950458059e-05,1.816159731807092e-06,0.27311538499999966
5.626384615,2.305944165761956e-06,2.4738925187194447e-06,2.69406623756785e-06,2.162795731651477e-06,4.778598851384371e-05,1.8128600389726968e-06,0.27363461499999975
5.626903846,2.2958434734033043e-06,2.4752255475405773e-06,2.7095849073649554e-06,2.1657922331697706e-06,4.783875310499721e-05,1.8025747349558552e-06,0.2741538459999999
5.627423077,2.293452905809946e-06,2.476082551454873e-06,2.720762037005741e-06,2.1703955530252224e-06,4.767513255000132e-05,1.7947514182152168e-06,0.2746730770000001
5.627942308,2.294368909947445e-06,2.47798916357164e-06,2.7241050220446044e-06,2.167432444797495e-06,4.766987583299277e-05,1.7954096170740631e-06,0.2751923079999994
5.628461538,2.3027019246662886e-06,2.4806230196607808e-06,2.723596914811395e-06,2.1705586889464336e-06,4.798040311951392e-05,1.8020278276408693e-06,0.2757115379999995
5.628980769,2.318733662723585e-06,2.480404118150938e-06,2.722427289097461e-06,2.168198018694252e-06,4.827743534092628e-05,1.80937277636852e-06,0.27623076899999965
5.6295,2.3298412615731984e-06,2.47504080416337e-06,2.7208454062619623e-06,2.1454225090791388e-06,4.8286565313431366e-05,1.815014825404792e-06,0.27674999999999983
5.630019231,2.3333083937761846e-06,2.460169855924419e-06,2.720888386283177e-06,2.1255548919025487e-06,4.765340890194979e-05,1.8184375659039144e-06,0.277269231
5.630538462,2.3357061351896785e-06,2.4479445954892047e-06,2.721606299492703e-06,2.118282655470293e-06,4.592312616615489e-05,1.819888578032328e-06,0.2777884619999993
5.631057692,2.340202670501065e-06,2.4583244155862167e-06,2.721399071230981e-06,2.1146075892103263e-06,4.348264482057815e-05,1.8187493617011928e-06,0.2783076919999994
5.631576923,2.348820154317065e-06,2.473332351292299e-06,2.7218802643174448e-06,2.11413296161668e-06,4.157630009041601e-05,1.8131358554163385e-06,0.27882692299999956
5.632096154,2.3572114820501994e-06,2.4750267122474195e-06,2.722718159566239e-06,2.1139035915926484e-06,4.098951405416069e-05,1.80357314118746e-06,0.27934615399999974
5.632615385,2.3558620512535088e-06,2.47603324567286e-06,2.722931056109233e-06,2.113755349853234e-06,4.09660338652246e-05,1.7970301446331726e-06,0.2798653849999999
5.633134615,2.342210450572848e-06,2.476555570224548e-06,2.722392772426835e-06,2.112600072437037e-06,3.958541592267457e-05,1.803875563687026e-06,0.280384615
5.633653846,2.318956453568594e-06,2.470670110022427e-06,2.7205760299545973e-06,2.101523349296662e-06,3.5791969041142254e-05,1.823991789365948e-06,0.2809038459999993
5.634173077,2.296508375593126e-06,2.469584820287682e-06,2.7195630389183063e-06,2.088296023192024e-06,3.108958881003965e-05,1.84213670591714e-06,0.28142307699999947
5.634692308,2.2857116748401247e-06,2.474158946862774e-06,2.719640277298605e-06,2.084475348913781e-06,2.861487703275335e-05,1.848272056464956e-06,0.28194230799999964
5.635211538,2.2858031572425937e-06,2.472034189920822e-06,2.716682958431761e-06,2.0853468732302742e-06,2.9341636910571225e-05,1.847626531642468e-06,0.28246153799999973
5.635730769,2.29130294315315e-06,2.4639696053591587e-06,2.7120782613421493e-06,2.087667864752718e-06,3.093382999837976e-05,1.848327898101746e-06,0.2829807689999999
5.63625,2.291787048067441e-06,2.458513685806237e-06,2.7128992077667237e-06,2.087002513828164e-06,3.153379671712419e-05,1.8530819370463409e-06,0.2835000000000001
5.636769231,2.290380859592969e-06,2.455222091334221e-06,2.7175734615477726e-06,2.0788615132301733e-06,3.126586220359926e-05,1.8566286062702087e-06,0.2840192309999994
5.637288462,2.30100068193296e-06,2.4514572029003542e-06,2.71596433575657e-06,2.067595833956405e-06,3.095242477478226e-05,1.8555218824852603e-06,0.28453846199999955
5.637807692,2.3121561703396256e-06,2.450326005939192e-06,2.709964297587166e-06,2.050977739244195e-06,3.100248909824306e-05,1.857820189443706e-06,0.28505769199999964
5.638326923,2.312461585780408e-06,2.448746535881216e-06,2.7126022208128006e-06,2.037354885874565e-06,3.128023536318292e-05,1.8728998721303256e-06,0.2855769229999998
5.638846154,2.315495141735301e-06,2.4426876729727327e-06,2.7215278862862068e-06,2.045141112792177e-06,3.145912785566911e-05,1.903862740223549e-06,0.286096154
5.639365385,2.318998234985144e-06,2.4391347350234823e-06,2.72590813531516e-06,2.05336558338714e-06,3.14548487279386e-05,1.9473041964683545e-06,0.2866153849999993
5.639884615,2.313803893590422e-06,2.4412421594192294e-06,2.727579659891693e-06,2.043421432753056e-06,3.144395746917368e-05,1.990630226518237e-06,0.28713461499999937
5.640403846,2.3150213743841804e-06,2.4435528671250102e-06,2.729785429270392e-06,2.0396168224050933e-06,3.1528779086939304e-05,2.014362988075241e-06,0.28765384599999955
5.640923077,2.3183752952353006e-06,2.44438978057126e-06,2.7335300798144058e-06,2.0470895914340645e-06,3.1647983628374624e-05,2.011777415357868e-06,0.2881730769999997
5.641442308,2.3113939701284317e-06,2.445581124462395e-06,2.7413017024704624e-06,2.049816881366366e-06,3.167725558159742e-05,1.998957635493234e-06,0.2886923079999999
5.641961538,2.307405156285205e-06,2.444521971654373e-06,2.7477121185445004e-06,2.04966197343211e-06,3.167560153414837e-05,1.989924672244096e-06,0.289211538
5.642480769,2.307990225456641e-06,2.438942262997284e-06,2.7492768872640864e-06,2.044601568838099e-06,3.190254203861001e-05,1.984897952977376e-06,0.2897307689999993
5.643,2.307323818235451e-06,2.4329223517855446e-06,2.7499663449586984e-06,2.0370313637286056e-06,3.2567228028065826e-05,1.982053306583277e-06,0.29024999999999945
5.643519231,2.3159269617403504e-06,2.4318969611884062e-06,2.748226103729629e-06,2.0427563838408848e-06,3.3851843181978535e-05,1.9822509427221432e-06,0.29076923099999963
5.644038462,2.334023942940556e-06,2.433737349359641e-06,2.7448273098588527e-06,2.0485479650180297e-06,3.579915168567432e-05,1.990184537434652e-06,0.2912884619999998
5.644557692,2.34804543716938e-06,2.4338984480620007e-06,2.744071148626005e-06,2.0427469360645388e-06,3.7865018179527176e-05,2.0052436660591484e-06,0.2918076919999999
5.645076923,2.35495050097253e-06,2.434459204459078e-06,2.7438661843777477e-06,2.0418789237271945e-06,3.921198299216202e-05,2.0135521692316763e-06,0.29232692300000007
5.645596154,2.3613105023853025e-06,2.435092759512133e-06,2.7485713441070434e-06,2.039364409188402e-06,3.963384095579228e-05,2.008005977943651e-06,0.29284615399999936
5.646115385,2.373234449068343e-06,2.435239723647041e-06,2.767343823647496e-06,2.0317162791849728e-06,3.963530372627255e-05,2.0096858463598083e-06,0.29336538499999953
5.646634615,2.3930031281698235e-06,2.439663540070687e-06,2.7969493299345424e-06,2.036417900830907e-06,3.994846077749679e-05,2.039973403809345e-06,0.2938846149999996
5.647153846,2.416731809709004e-06,2.452149918022797e-06,2.825970284366737e-06,2.0369837400397966e-06,4.1236538500128816e-05,2.079071827597669e-06,0.2944038459999998
5.647673077,2.4381355359398257e-06,2.474573446507156e-06,2.846074594237361e-06,2.019222282617308e-06,4.354226861940967e-05,2.09699760143358e-06,0.294923077
5.648192308,2.453704415767225e-06,2.5035352324640548e-06,2.8595613379462548e-06,2.008202244141128e-06,4.591705804911594e-05,2.095639151873916e-06,0.29544230799999927
5.648711538,2.4637393358820297e-06,2.534602520149584e-06,2.8796986923062952e-06,2.0168013934588117e-06,4.740218019094432e-05,2.091666331942968e-06,0.29596153799999936
5.649230769,2.4693010025578536e-06,2.571348549137905e-06,2.92350888049493e-06,2.032775068556608e-06,4.80023444860146e-05,2.0927798315966203e-06,0.29648076899999953
5.64975,2.469905802277688e-06,2.622115356945234e-06,2.9955672956150368e-06,2.0420833489336963e-06,4.82139775449129e-05,2.0974660709612725e-06,0.2969999999999997
5.650269231,2.474549049740089e-06,2.690723101564882e-06,3.065212817669415e-06,2.0412554626429605e-06,4.833648866932378e-05,2.10164442819693e-06,0.2975192309999999
5.650788462,2.494560016117248e-06,2.765402974258137e-06,3.0988722322985187e-06,2.0388151318571383e-06,4.844443826772669e-05,2.103043073441958e-06,0.29803846200000006
5.651307692,2.523667208964388e-06,2.826781458924448e-06,3.104155807105096e-06,2.037014335850817e-06,4.851060561750479e-05,2.1123066754519648e-06,0.29855769199999926
5.651826923,2.5509229272392024e-06,2.870071581727119e-06,3.1009312958890737e-06,2.0422627526510265e-06,4.852739699773426e-05,2.1440317356547054e-06,0.29907692299999944
5.652346154,2.574853962258575e-06,2.905773184964084e-06,3.098905826805416e-06,2.079119464466678e-06,4.853329950648031e-05,2.1917888519459493e-06,0.2995961539999996
5.652865385,2.5991326074883654e-06,2.950392951791072e-06,3.1036299701514697e-06,2.143126108779117e-06,4.8570736788747645e-05,2.2417221063890325e-06,0.3001153849999998
5.653384615,2.630826601632516e-06,3.023778707371224e-06,3.1078072680891814e-06,2.1903121048332635e-06,4.87085583408666e-05,2.2830457568825337e-06,0.3006346149999999
5.653903846,2.6810593219483874e-06,3.1354061481324983e-06,3.1004490772832576e-06,2.2035831134545763e-06,4.898405886178338e-05,2.3042047805213004e-06,0.30115384600000006
5.654423077,2.747560768640099e-06,3.266583160797495e-06,3.0890182939282e-06,2.202534093275687e-06,4.938546528776206e-05,2.3083658283771727e-06,0.30167307699999935
5.654942308,2.8048658061676387e-06,3.3854277837236384e-06,3.09973573134747e-06,2.2014242365857165e-06,4.995718950205824e-05,2.308465815527609e-06,0.3021923079999995
5.655461538,2.8355880019463005e-06,3.479398717342665e-06,3.1467716889147866e-06,2.2037210759776785e-06,5.077173495913195e-05,2.309009434717931e-06,0.3027115379999996
5.655980769,2.846807486550156e-06,3.559591971172892e-06,3.2046701389526625e-06,2.207405448989115e-06,5.16403815265672e-05,2.315211180458256e-06,0.3032307689999998
5.6565,2.8515889638081887e-06,3.644046964749177e-06,3.2396936677144982e-06,2.2073012505824373e-06,5.207081256861083e-05,2.333578931342192e-06,0.30374999999999996
5.657019231,2.861950722098216e-06,3.7444684157420112e-06,3.250090695411105e-06,2.205295912428293e-06,5.207486544633598e-05,2.3557697424521124e-06,0.30426923099999925
5.657538462,2.880150961877733e-06,3.857329896775062e-06,3.2515968241546304e-06,2.204272589567416e-06,5.242674431054263e-05,2.365967891143724e-06,0.3047884619999994
5.658057692,2.895329248770422e-06,3.9664743416014426e-06,3.2518450917323376e-06,2.206836866415807e-06,5.34074209219424e-05,2.3643432039714634e-06,0.3053076919999995
5.658576923,2.901582276385893e-06,4.058721066212246e-06,3.252803651594044e-06,2.209563276343288e-06,5.442783763302003e-05,2.3677425026252404e-06,0.3058269229999997
5.659096154,2.9040135517785027e-06,4.133228623378237e-06,3.254668741383039e-06,2.199635314252312e-06,5.501890471637879e-05,2.3811893894333595e-06,0.30634615399999987
5.659615385,2.912118212317178e-06,4.196322392193867e-06,3.254785851370632e-06,2.1884927372945702e-06,5.517900190827071e-05,2.393187977270104e-06,0.30686538500000005
5.660134615,2.9275232962573825e-06,4.252519708022779e-06,3.2540394823465245e-06,2.1885502963645903e-06,5.518038467732306e-05,2.398475717538072e-06,0.30738461499999925
5.660653846,2.942634710014706e-06,4.300844384602581e-06,3.2541331809463742e-06,2.17906185342026e-06,5.539095248737351e-05,2.401593612046013e-06,0.3079038459999994
5.661173077,2.9507565292278188e-06,4.338451024381726e-06,3.2516121416605585e-06,2.1632983766470423e-06,5.580361187833424e-05,2.409729610192152e-06,0.3084230769999996
5.661692308,2.950504893451341e-06,4.366929265593768e-06,3.245764736272588e-06,2.1600820564472897e-06,5.60151607598869e-05,2.4181452881604604e-06,0.3089423079999998
5.662211538,2.947428011699398e-06,4.391338730910629e-06,3.2426538365357874e-06,2.1615819516565022e-06,5.601982496456361e-05,2.4128412967960533e-06,0.30946153799999987
5.662730769,2.948414069285289e-06,4.41419261675039e-06,3.2519175304960475e-06,2.1672033688541994e-06,5.605915153935335e-05,2.401326183100428e-06,0.30998076900000004
5.66325,2.9504471644316054e-06,4.433633088514935e-06,3.283833974038648e-06,2.1729216693622588e-06,5.6102538093486e-05,2.3979821713915384e-06,0.31049999999999933
5.663769231,2.9492967469198174e-06,4.44390708945621e-06,3.341594127610936e-06,2.171168412202276e-06,5.612211479997598e-05,2.3979487500729884e-06,0.3110192309999995
5.664288462,2.9530296294764744e-06,4.442955549536002e-06,3.41578460086933e-06,2.1767539739457727e-06,5.617975551932094e-05,2.4047568532359744e-06,0.3115384619999997
5.664807692,2.9591689794311565e-06,4.438695339392383e-06,3.4936828283081308e-06,2.1922397409811747e-06,5.64440754751357e-05,2.437097379519721e-06,0.3120576919999998
5.665326923,2.9591383266215893e-06,4.44042053105695e-06,3.570483927463307e-06,2.2021822378086184e-06,5.703067940736836e-05,2.4975637499313514e-06,0.31257692299999995
5.665846154,2.9766409315076594e-06,4.450147966912295e-06,3.6482749839396393e-06,2.203414927036779e-06,5.775969070295188e-05,2.57235762368368e-06,0.31309615399999924
5.666365385,3.028185060086656e-06,4.465187432197634e-06,3.736265043665244e-06,2.203412669124036e-06,5.841870283592572e-05,2.6573006427246587e-06,0.3136153849999994
5.666884615,3.0886540784674405e-06,4.4862066964218665e-06,3.847752507481669e-06,2.203116810184342e-06,5.895660242210413e-05,2.7639354983139275e-06,0.3141346149999995
5.667403846,3.142950714704944e-06,4.521295306383996e-06,3.988323765142817e-06,2.2066773050021105e-06,5.937050105366227e-05,2.901613447564329e-06,0.3146538459999997
5.667923077,3.209986351084956e-06,4.581735741153716e-06,4.153593134788555e-06,2.207007814892664e-06,5.963525606315383e-05,3.0537279726581204e-06,0.31517307699999986
5.668442308,3.330346057736195e-06,4.677982703134574e-06,4.337448866412908e-06,2.1905146043739986e-06,5.975548007037599e-05,3.1770193896159007e-06,0.31569230800000003
5.668961538,3.533406511534398e-06,4.8278064581238e-06,4.544822191677499e-06,2.180836551398096e-06,5.978774592887999e-05,3.2389751748359226e-06,0.31621153799999924
5.669480769,3.802459090424681e-06,5.067894307499807e-06,4.794165182640565e-06,2.1812171769599145e-06,5.979029148798962e-05,3.2502439146563413e-06,0.3167307689999994
5.67,4.112440297159215e-06,5.451461888439453e-06,5.0925654814649565e-06,2.175089035753312e-06,5.979029523482776e-05,3.251611819182202e-06,0.3172499999999996
5.670519231,4.469996408683073e-06,6.031911710714808e-06,5.407019980797785e-06,2.176136676947997e-06,5.9794072391378825e-05,3.272000113622548e-06,0.31776923099999976
5.671038462,4.890156502621817e-06,6.846805176140092e-06,5.683764444434017e-06,2.1863194793874902e-06,5.980883010206266e-05,3.308980864789592e-06,0.31828846199999994
5.671557692,5.361270918819224e-06,7.90849785158915e-06,5.901732540162378e-06,2.197271170531461e-06,5.985675343022898e-05,3.3482881628419328e-06,0.31880769200000003
5.672076923,5.847297975488812e-06,9.197062367331607e-06,6.084951494122936e-06,2.202321994679865e-06,5.99482657618764e-05,3.383542631615518e-06,0.3193269229999993
5.672596154,6.316373948641704e-06,1.0652344600475908e-05,6.271019240195491e-06,2.1973716518141936e-06,6.002527738377013e-05,3.417418506078079e-06,0.3198461539999995
5.673115385,6.753198084684039e-06,1.2173409367676417e-05,6.481423086447378e-06,2.195081638235113e-06,6.003972054874506e-05,3.454934656666863e-06,0.32036538499999967
5.673634615,7.150125994384216e-06,1.363298909751379e-05,6.71394329995553e-06,2.208297504113004e-06,6.004608557261064e-05,3.4959327532034234e-06,0.32088461499999976
5.674153846,7.499494119298816e-06,1.4902622933996143e-05,6.957377601735826e-06,2.2424517304387526e-06,6.010148869449586e-05,3.5330161323975714e-06,0.32140384599999994
5.674673077,7.795286039582078e-06,1.589178921855591e-05,7.198063173859876e-06,2.296842704654242e-06,6.0227674080930815e-05,3.559379444453233e-06,0.3219230769999992
5.675192308,8.034218964557226e-06,1.6586558527451082e-05,7.4057802346738575e-06,2.3601266071676085e-06,6.046863025546547e-05,3.5769437608902155e-06,0.3224423079999994
5.675711538,8.21333065308805e-06,1.70431370262825e-05,7.539576050839767e-06,2.4259936940696265e-06,6.0847376109776185e-05,3.591112431235283e-06,0.3229615379999995
5.676230769,8.336540283344264e-06,1.733439398481999e-05,7.590732491232739e-06,2.493113270651577e-06,6.126371607666868e-05,3.5983405070963204e-06,0.32348076899999967
5.67675,8.417620918044027e-06,1.750686852019653e-05,7.596295710485513e-06,2.552233709154001e-06,6.158451069577977e-05,3.597597162473665e-06,0.32399999999999984
5.677269231,8.468936082776862e-06,1.758531899514584e-05,7.598234382183439e-06,2.5999280471943044e-06,6.179680367123822e-05,3.620393570769152e-06,0.324519231
5.677788462,8.496445034539053e-06,1.7602134186303354e-05,7.623369135388149e-06,2.6405468393565523e-06,6.19558257854235e-05,3.703043118404519e-06,0.3250384619999993
5.678307692,8.505649471248186e-06,1.7602345289882175e-05,7.703498608795227e-06,2.669494461952561e-06,6.209031272405697e-05,3.831431591365783e-06,0.3255576919999994
5.678826923,8.50578518004621e-06,1.762098810048999e-05,7.881762783731631e-06,2.6812553963401405e-06,6.219333667419569e-05,3.967802687774306e-06,0.3260769229999996
5.679346154,8.505096396628558e-06,1.7673682155234902e-05,8.177454470264632e-06,2.6824740919611942e-06,6.226334370272765e-05,4.100834649904386e-06,0.32659615399999975
5.679865385,8.50877876814713e-06,1.776626973920382e-05,8.5644580652085e-06,2.6817770038365945e-06,6.231590233321073e-05,4.245475526521767e-06,0.3271153849999999
5.680384615,8.524571058306177e-06,1.7900610390592513e-05,9.006731983268566e-06,2.681284306445299e-06,6.235932472793695e-05,4.420093528276361e-06,0.327634615
5.680903846,8.564127580847464e-06,1.807621854193885e-05,9.490588855049491e-06,2.681326306846565e-06,6.238420108432462e-05,4.622057652575832e-06,0.3281538459999993
5.681423077,8.634900687283217e-06,1.82958857064419e-05,1.001718788967944e-05,2.6833266132189085e-06,6.238803929005079e-05,4.813922220179185e-06,0.3286730769999995
5.681942308,8.73541428981795e-06,1.8564317661146035e-05,1.0578466055340024e-05,2.7071686296620974e-06,6.238951398006194e-05,4.944326858944205e-06,0.32919230799999966
5.682461538,8.861259959044271e-06,1.887550149537321e-05,1.1144389245617724e-05,2.792942197334042e-06,6.240351958674923e-05,4.995651457069951e-06,0.32971153799999975
5.682980769,9.01054673902544e-06,1.920869183635921e-05,1.1673733081095576e-05,2.933725705929851e-06,6.244282176166305e-05,4.9998996383917866e-06,0.3302307689999999
5.6835,9.182605668258678e-06,1.9547190406620075e-05,1.2133759201833118e-05,3.071834747719725e-06,6.254171651676629e-05,4.999647641177125e-06,0.3307500000000001
5.684019231,9.374076391480065e-06,1.9897735510023325e-05,1.2515806134086513e-05,3.1764758395354478e-06,6.273935508082906e-05,5.014286574671683e-06,0.3312692309999994
5.684538462,9.580388179539586e-06,2.0283443488554927e-05,1.283502589120483e-05,3.2436997865888025e-06,6.30124613542703e-05,5.047687500085326e-06,0.33178846199999956
5.685057692,9.799747520997796e-06,2.0716229153645813e-05,1.3103913665237245e-05,3.2827507022850616e-06,6.329291641484083e-05,5.100209501531495e-06,0.33230769199999965
5.685576923,1.0031539301311482e-05,2.117546535662309e-05,1.3311237837868554e-05,3.3177484706868165e-06,6.35736974241939e-05,5.16650365968267e-06,0.33282692299999983
5.686096154,1.027403606945884e-05,2.161958997328833e-05,1.344127593412567e-05,3.3537120941029948e-06,6.391527113605297e-05,5.2372525368056575e-06,0.333346154
5.686615385,1.0523509819592842e-05,2.202129163306323e-05,1.3503221033208268e-05,3.380392475808944e-06,6.433321626067303e-05,5.307714788948886e-06,0.3338653849999993
5.687134615,1.0772211875937584e-05,2.238364281353049e-05,1.3525921181414514e-05,3.39822845144098e-06,6.469069551631473e-05,5.380211152764051e-06,0.3343846149999994
5.687653846,1.1011818229709988e-05,2.2722214236097484e-05,1.3534788775686353e-05,3.414421701997498e-06,6.485435984640758e-05,5.459189940948629e-06,0.33490384599999956
5.688173077,1.1240300463919006e-05,2.3039770984513083e-05,1.3541948464636162e-05,3.434394789773718e-06,6.488940820320763e-05,5.5465959556665135e-06,0.33542307699999974
5.688692308,1.1459286593801256e-05,2.3319809363105323e-05,1.3547726755211178e-05,3.456954969695249e-06,6.490039288837795e-05,5.641213667483733e-06,0.3359423079999999
5.689211538,1.1664707369646833e-05,2.3542343804192925e-05,1.3549444132620672e-05,3.4780456808838472e-06,6.494045674615671e-05,5.743339099602936e-06,0.336461538
5.689730769,1.184723172933646e-05,2.3703571323665477e-05,1.3549492609731876e-05,3.491992669648245e-06,6.510257104333095e-05,5.857764219886814e-06,0.3369807689999993
5.69025,1.2003926681476454e-05,2.381710831902791e-05,1.3551481904948309e-05,3.4901629505266988e-06,6.55173749681261e-05,5.988329479000791e-06,0.33749999999999947
5.690769231,1.2143639450325404e-05,2.3899736591002612e-05,1.3554949744332464e-05,3.4753568205979183e-06,6.631062712649194e-05,6.131857905474202e-06,0.33801923099999964
5.691288462,1.2278375832294864e-05,2.396083093396231e-05,1.3558247555755203e-05,3.465662457294232e-06,6.744831375829514e-05,6.277901299275318e-06,0.3385384619999998
5.691807692,1.240980532050784e-05,2.4002855281216304e-05,1.3561833655236627e-05,3.468664261771197e-06,6.854422144184079e-05,6.413613339106785e-06,0.3390576919999999
5.692326923,1.2525050092442672e-05,2.402766924075417e-05,1.3569454204692385e-05,3.474003651690107e-06,6.915612589587231e-05,6.530678939247265e-06,0.3395769230000001
5.692846154,1.2610903790000645e-05,2.4039807682184803e-05,1.3591518278163598e-05,3.476394479643224e-06,6.93081660590393e-05,6.628317641755091e-06,0.3400961539999994
5.693365385,1.2668283932431031e-05,2.404465247270272e-05,1.364557798361814e-05,3.4788284693545344e-06,6.931390353854213e-05,6.70898889289621e-06,0.34061538499999955
5.693884615,1.2707042014947223e-05,2.4046077937367124e-05,1.3742305617700484e-05,3.4914785696760907e-06,6.931455024238031e-05,6.772688319422892e-06,0.34113461499999964
5.694403846,1.2733826801727484e-05,2.404590424565689e-05,1.3865555846474195e-05,3.528538904742167e-06,6.931683508009565e-05,6.817557043296831e-06,0.3416538459999998
5.694923077,1.2748977332170814e-05,2.404545802799293e-05,1.3978596604236268e-05,3.5735931190730554e-06,6.934896429575266e-05,6.844510910453251e-06,0.342173077
5.695442308,1.2753188164958253e-05,2.4045648449915675e-05,1.40585113873592e-05,3.595077580037737e-06,6.941872224738731e-05,6.858238148721513e-06,0.3426923079999993
5.695961538,1.275317619112914e-05,2.4046185821251025e-05,1.4110015831936064e-05,3.597645193881035e-06,6.949021474634747e-05,6.863759725591238e-06,0.34321153799999937
5.696480769,1.275570569537406e-05,2.404743289623008e-05,1.4146641430649946e-05,3.596369525181952e-06,6.953146369067986e-05,6.864448767477173e-06,0.34373076899999955
5.697,1.2760970414613956e-05,2.405079547484176e-05,1.417692308384421e-05,3.592179404473172e-06,6.954182611701329e-05,6.864555413856063e-06,0.3442499999999997
5.697519231,1.2766646074181594e-05,2.4058165599095067e-05,1.4202255872300289e-05,3.591306563906032e-06,6.954181487473131e-05,6.870853688058338e-06,0.3447692309999999
5.698038462,1.2774080161437963e-05,2.4072252476757487e-05,1.4220258126083451e-05,3.594015227951256e-06,6.9550357459797e-05,6.886915304827869e-06,0.3452884620000001
5.698557692,1.2787917925319073e-05,2.40953175519132e-05,1.4232697013305565e-05,3.5934584439598638e-06,6.957386985483804e-05,6.909123217411137e-06,0.3458076919999993
5.699076923,1.2809502877641354e-05,2.412764406676041e-05,1.4245510842049698e-05,3.5934902112616317e-06,6.961219366372061e-05,6.932394002245823e-06,0.34632692299999945
5.699596154,1.2833792881793892e-05,2.416696042006631e-05,1.4264973404900112e-05,3.6006586619478192e-06,6.966572821582308e-05,6.955759019352267e-06,0.34684615399999963
5.700115385,1.285657545215186e-05,2.4209478342601048e-05,1.4293580612727212e-05,3.612304667127593e-06,6.973522726317697e-05,6.982035664225741e-06,0.3473653849999998
5.700634615,1.2879906822180872e-05,2.42527899744191e-05,1.432387090557952e-05,3.62039290910929e-06,6.98193098618906e-05,7.015549775533316e-06,0.3478846149999999
5.701153846,1.291002550547385e-05,2.429828238382436e-05,1.435034700098068e-05,3.6216941957306953e-06,6.991468919430381e-05,7.060126991130638e-06,0.3484038460000001
5.701673077,1.2952870599834808e-05,2.435097994540125e-05,1.4385772086675335e-05,3.619110079695556e-06,7.00186116355825e-05,7.118014251273376e-06,0.34892307699999936
5.702192308,1.3011787208231076e-05,2.4416950683143443e-05,1.4470732320006804e-05,3.6151765588166846e-06,7.013089949655334e-05,7.190245823873867e-06,0.34944230799999954
5.702711538,1.309105788861593e-05,2.4499264285563788e-05,1.4665571500191756e-05,3.613184140315542e-06,7.025334279876861e-05,7.274961747588969e-06,0.34996153799999963
5.703230769,1.3194564659338588e-05,2.459294099956532e-05,1.496521197756395e-05,3.621599850678121e-06,7.03860177846126e-05,7.363802591531075e-06,0.3504807689999998
5.70375,1.3314766368316064e-05,2.4685541469679175e-05,1.5254916528591748e-05,3.6392583016266137e-06,7.052513717362305e-05,7.443771347388892e-06,0.351
5.704269231,1.3429442612444717e-05,2.476740210133437e-05,1.5429817529633143e-05,3.6497762787670793e-06,7.066607925265548e-05,7.505791941761018e-06,0.35151923099999927
5.704788462,1.3522175376998463e-05,2.4839179281286327e-05,1.5490673725159313e-05,3.650348542677784e-06,7.080786262140028e-05,7.551037124316354e-06,0.35203846199999944
5.705307692,1.359972433968215e-05,2.4907915084483832e-05,1.5497756057447772e-05,3.65060451147933e-06,7.095321961863141e-05,7.587347482301341e-06,0.35255769199999953
5.705826923,1.3682432102146052e-05,2.4978611393412128e-05,1.5499039358073145e-05,3.650555719182269e-06,7.110356792070988e-05,7.6215986078493535e-06,0.3530769229999997
5.706346154,1.3784262558318668e-05,2.504924670198039e-05,1.5515509603504587e-05,3.650658308346456e-06,7.125449638804284e-05,7.656197393435205e-06,0.3535961539999999
5.706865385,1.3894364980420869e-05,2.5113379072488827e-05,1.5552491344420773e-05,3.653657533930559e-06,7.139784348078638e-05,7.690876404568522e-06,0.35411538500000006
5.707384615,1.398446218285295e-05,2.5167188799846987e-05,1.5601938708769897e-05,3.655094206028013e-06,7.152793312631048e-05,7.725468637806427e-06,0.35463461499999926
5.707903846,1.4040547012706066e-05,2.521218804295948e-05,1.5649849584883068e-05,3.654920403262394e-06,7.164400644196112e-05,7.759169710416183e-06,0.35515384599999944
5.708423077,1.4073702057436312e-05,2.5252150575374145e-05,1.5688577697559518e-05,3.658826868368396e-06,7.174763765522473e-05,7.789411582449796e-06,0.3556730769999996
5.708942308,1.4107809550089764e-05,2.52890592488184e-05,1.5717410979512116e-05,3.66432585570862e-06,7.184024643888593e-05,7.812821181843091e-06,0.3561923079999998
5.709461538,1.4154582074625582e-05,2.5321682484198547e-05,1.5737375632619104e-05,3.6661787453634894e-06,7.192353883047332e-05,7.828013839044962e-06,0.3567115379999999
5.709980769,1.4201471157360233e-05,2.5348022928638936e-05,1.5749550645446406e-05,3.664445319832247e-06,7.20001728016164e-05,7.837597889168843e-06,0.35723076900000006
5.7105,1.4236855598695052e-05,2.536856738941852e-05,1.5756287264849775e-05,3.661965267984112e-06,7.207152698491464e-05,7.844337103057128e-06,0.35774999999999935
5.711019231,1.4262402172098946e-05,2.5386478438386576e-05,1.5761130867673323e-05,3.6665453275377225e-06,7.213546833701508e-05,7.848877135335378e-06,0.3582692309999995
5.711538462,1.428319235162468e-05,2.540544235972558e-05,1.5765629946717744e-05,3.687852557347842e-06,7.218832398402099e-05,7.851990082582322e-06,0.3587884619999997
5.712057692,1.4304994292215098e-05,2.5426908040649315e-05,1.5768519766279383e-05,3.724456112876224e-06,7.222868757737302e-05,7.853690475396095e-06,0.3593076919999998
5.712576923,1.4327157019430182e-05,2.544796921573524e-05,1.5769723106490004e-05,3.761598085836032e-06,7.225817899139156e-05,7.853349209522868e-06,0.35982692299999997
5.713096154,1.4342558608848555e-05,2.546380322177729e-05,1.5771463081344506e-05,3.7877815916997015e-06,7.227965962012712e-05,7.852327280415932e-06,0.36034615399999925
5.713615385,1.4349166544440264e-05,2.547309452691369e-05,1.5774471734337196e-05,3.805236903529926e-06,7.229612160726839e-05,7.852949831697346e-06,0.36086538499999943
5.714134615,1.4350924623382413e-05,2.5478476456009634e-05,1.577786360257539e-05,3.819225137261967e-06,7.2310520207262e-05,7.854783023337347e-06,0.3613846149999995
5.714653846,1.4351249076424249e-05,2.5482952291204345e-05,1.578311339778868e-05,3.8316036474535074e-06,7.232449973525453e-05,7.855640589301896e-06,0.3619038459999997
5.715173077,1.435132603806088e-05,2.5487609231929728e-05,1.5791718135867303e-05,3.845390772200252e-06,7.233606474784053e-05,7.855147828321251e-06,0.36242307699999987
5.715692308,1.4351258801269529e-05,2.5491149740691808e-05,1.5799673910701083e-05,3.858411430212143e-06,7.234095492994031e-05,7.852884647709746e-06,0.36294230800000005
5.716211538,1.4350356620686806e-05,2.5492211462813923e-05,1.5802696553252058e-05,3.864075468910631e-06,7.234095413373235e-05,7.8493882631188e-06,0.36346153799999925
5.716730769,1.4348281176457093e-05,2.5491997381724028e-05,1.5802786364376503e-05,3.8646164744213655e-06,7.234806874533358e-05,7.84926683695693e-06,0.3639807689999994
5.71725,1.434689439304294e-05,2.5492363861053957e-05,1.5802783792285756e-05,3.8648082721805495e-06,7.237435104059329e-05,7.85518163552618e-06,0.3644999999999996
5.717769231,1.4348131960833864e-05,2.54934965681818e-05,1.58027496814184e-05,3.866611769753883e-06,7.242240096485766e-05,7.863734799653404e-06,0.3650192309999998
5.718288462,1.4351468426656068e-05,2.5495144405394068e-05,1.5802704414815302e-05,3.8732074228353884e-06,7.248880738191484e-05,7.871016155610898e-06,0.36553846199999995
5.718807692,1.4355297403217164e-05,2.5497615560055385e-05,1.5802883767947037e-05,3.880738738379278e-06,7.257008733074186e-05,7.876983230629944e-06,0.36605769200000005
5.719326923,1.435808284044988e-05,2.550132909328551e-05,1.580322917932228e-05,3.882271239303739e-06,7.266581947140786e-05,7.883879627526116e-06,0.36657692299999933
5.719846154,1.435885623402626e-05,2.550596302884232e-05,1.5803386051685954e-05,3.880139318768962e-06,7.278206404152132e-05,7.894323360580734e-06,0.3670961539999995
5.720365385,1.4358697002555028e-05,2.5510304108823943e-05,1.5802864691298126e-05,3.878876687629857e-06,7.29279533156188e-05,7.909583580214167e-06,0.3676153849999997
5.720884615,1.4360353666242505e-05,2.5513765425450914e-05,1.5801999869644986e-05,3.881863445422965e-06,7.309896111192439e-05,7.92718185144141e-06,0.3681346149999998
5.721403846,1.436425916164204e-05,2.551686591911687e-05,1.5801738316669887e-05,3.8977685290184745e-06,7.326569837136391e-05,7.944171153183007e-06,0.36865384599999995
5.721923077,1.4368720905655711e-05,2.552022968245153e-05,1.5801758213421488e-05,3.921516284413044e-06,7.339581229650595e-05,7.961713264451371e-06,0.36917307699999924
5.722442308,1.437398869038904e-05,2.5524515366966908e-05,1.5801311983535543e-05,3.932825836401382e-06,7.34833373310607e-05,7.98335430811373e-06,0.3696923079999994
5.722961538,1.4379802480587134e-05,2.553051277032268e-05,1.5800604515920416e-05,3.932493866100401e-06,7.35421857379737e-05,8.008507861196565e-06,0.3702115379999995
5.723480769,1.438551647406952e-05,2.553889233283005e-05,1.579909576487841e-05,3.931815426838426e-06,7.358257188381666e-05,8.029083078077111e-06,0.3707307689999997
5.724,1.4394067738320376e-05,2.5550057724905623e-05,1.579620402307025e-05,3.930951922260378e-06,7.360395582884193e-05,8.039405154468775e-06,0.37124999999999986
5.724519231,1.4406250298566511e-05,2.5563730785622163e-05,1.5792384885882138e-05,3.9313144883873016e-06,7.36081627754139e-05,8.043112653610132e-06,0.37176923100000003
5.725038462,1.441716485459913e-05,2.557862612393207e-05,1.5788161388836125e-05,3.930367966686316e-06,7.360855472653455e-05,8.045364624420641e-06,0.3722884619999993
5.725557692,1.4424049160144117e-05,2.5592930663291923e-05,1.5784746159828264e-05,3.932606013909161e-06,7.361217125536655e-05,8.048457583384058e-06,0.3728076919999994
5.726076923,1.4429482389668468e-05,2.5605313019219556e-05,1.5783282182024544e-05,3.947923219382132e-06,7.361256527234036e-05,8.052201397356437e-06,0.3733269229999996
5.726596154,1.4436545204177171e-05,2.561571072582318e-05,1.5783335462639378e-05,3.962641940419668e-06,7.361922817998507e-05,8.054345144522657e-06,0.37384615399999976
5.727115385,1.4446248407632333e-05,2.5625524881455644e-05,1.5783893015559196e-05,3.966658596022919e-06,7.365973894848021e-05,8.0546678484853e-06,0.37436538499999994
