Time,Rectus Femoris,Vastus Medialis,Vastus Lateralis,Bicep Femoris,Tibialis,Gastrocnemius Medialis,Trimmed Time
5.390134615,2.723958558881516e-06,2.7841319631374084e-06,3.336381970285041e-06,8.989856027582111e-06,0.0001285686354217,1.035932162869359e-05,0.00025961500000004634
5.390653846,2.7137879600674053e-06,2.7247817692137204e-06,3.3367787349444563e-06,8.967577084331318e-06,0.0001274959788779,1.029311964420773e-05,0.0007788460000002217
5.391173077,2.7134590936091057e-06,2.686659959899125e-06,3.334257643118599e-06,8.923724941348827e-06,0.0001262485303505,1.0288021477562132e-05,0.0012980770000003972
5.391692308,2.7085606341201685e-06,2.685701183046385e-06,3.3305957727815563e-06,8.866491284785346e-06,0.0001253543066098,1.0292364689046296e-05,0.0018173079999996844
5.392211538,2.691595269352495e-06,2.703078885320022e-06,3.319035996342128e-06,8.782451693677929e-06,0.0001250005407791,1.030147312382981e-05,0.002336537999999777
5.392730769,2.677796921959244e-06,2.717432242275905e-06,3.2895719663674547e-06,8.643898544668678e-06,0.000125020425152,1.0315055154016208e-05,0.0028557689999999525
5.39325,2.6758242143315565e-06,2.7105218392937305e-06,3.2446882915038178e-06,8.447850001436813e-06,0.0001250337196159,1.0325839290353698e-05,0.003375000000000128
5.393769231,2.6769489801385428e-06,2.6828396443548164e-06,3.195946448210146e-06,8.240923758821505e-06,0.0001247644192574,1.0324265193837067e-05,0.0038942310000003033
5.394288462,2.676307591774389e-06,2.658209339694182e-06,3.150194068626318e-06,8.075300098346875e-06,0.0001244039320604,1.030868580614915e-05,0.0044134619999995905
5.394807692,2.678174431574618e-06,2.6492584886535663e-06,3.1110612167557326e-06,7.959913829118289e-06,0.0001247062644662,1.0297563207824651e-05,0.004932691999999683
5.395326923,2.6812665694767925e-06,2.6495539792451386e-06,3.085053673104139e-06,7.878391982865208e-06,0.0001263734650456,1.030730361415898e-05,0.005451922999999859
5.395846154,2.679529373234006e-06,2.651332831129448e-06,3.074962111862861e-06,7.82375426660815e-06,0.0001291540895114,1.0296438277682936e-05,0.005971154000000034
5.396365385,2.672474667739845e-06,2.651153694479254e-06,3.075683627833023e-06,7.795925707655073e-06,0.0001320031083576,1.024958548006448e-05,0.0064903850000002095
5.396884615,2.6645872454290096e-06,2.649189405416717e-06,3.0847417536808684e-06,7.783841759663517e-06,0.0001340610212491,1.020391703966615e-05,0.007009615000000302
5.397403846,2.6611690415797533e-06,2.650641069959941e-06,3.104649218927827e-06,7.774814759419534e-06,0.0001351455978728,1.016238852031288e-05,0.007528845999999589
5.397923077,2.661175768645971e-06,2.6589695027083546e-06,3.135689690702712e-06,7.761859275455688e-06,0.0001354772056676,1.0109978936515422e-05,0.008048076999999765
5.398442308,2.6601963178106178e-06,2.6657077688447828e-06,3.1719312704840677e-06,7.745791868196706e-06,0.0001353463455666,1.007512054524168e-05,0.00856730799999994
5.398961538,2.660588577429204e-06,2.665758549021501e-06,3.2024840632732894e-06,7.736042275853413e-06,0.0001351000166269,1.0079454351321648e-05,0.009086538000000033
5.399480769,2.6613625266378927e-06,2.6662654299489035e-06,3.220449107207599e-06,7.733730230880011e-06,0.0001350081318505,1.0013479758112812e-05,0.009605769000000208
5.4,2.662111423619836e-06,2.6692171289018945e-06,3.228385140162581e-06,7.733678679508196e-06,0.0001351038881474,9.854527189405374e-06,0.010125000000000384
5.400519231,2.670494361639984e-06,2.6741359988261043e-06,3.232506923403108e-06,7.727777470162681e-06,0.0001353572261695,9.754727166456744e-06,0.010644230999999671
5.401038462,2.6796510721901863e-06,2.6778048028679016e-06,3.239007426113171e-06,7.706581708844206e-06,0.000135890396132,9.741156437662448e-06,0.011163461999999846
5.401557692,2.6806591063366254e-06,2.6716949783992595e-06,3.251209150560317e-06,7.678794419092224e-06,0.0001369914474272,9.745479038741394e-06,0.011682691999999939
5.402076923,2.6806104256672386e-06,2.660594453992981e-06,3.26261269156094e-06,7.662289769984685e-06,0.0001388218460224,9.754202521106092e-06,0.012201923000000114
5.402596154,2.6803911771997323e-06,2.6555976781329447e-06,3.267236734528808e-06,7.659228531855885e-06,0.0001410037418901,9.76175283655099e-06,0.01272115400000029
5.403115385,2.674681170126811e-06,2.6610477285865232e-06,3.265384381803176e-06,7.658719171857732e-06,0.0001428276242903,9.761772654176608e-06,0.013240385000000465
5.403634615,2.659845984275359e-06,2.678323684874534e-06,3.252310251652476e-06,7.647433340296797e-06,0.0001438987831567,9.762273662687506e-06,0.01375961499999967
5.404153846,2.6406680515716666e-06,2.6965405485405706e-06,3.221967350852373e-06,7.606822468865179e-06,0.0001443206517593,9.769169946653622e-06,0.014278845999999845
5.404673077,2.630270005376291e-06,2.700824243076985e-06,3.179250194564895e-06,7.52188074427452e-06,0.0001444799204297,9.778373977095275e-06,0.01479807700000002
5.405192308,2.6290226292631985e-06,2.696997968416665e-06,3.135740365034748e-06,7.402263703945616e-06,0.0001446543657738,9.77420862176406e-06,0.015317308000000196
5.405711538,2.630353324610841e-06,2.695126459204491e-06,3.0944296114534908e-06,7.278325463328819e-06,0.0001446030866379,9.72235941800654e-06,0.01583653800000029
5.406230769,2.6301667226310828e-06,2.6879051363372336e-06,3.055077422501924e-06,7.179039965385766e-06,0.0001437846356584,9.58419180794731e-06,0.016355769000000464
5.40675,2.623630110968194e-06,2.6775896129315376e-06,3.0299211191172125e-06,7.117376874481097e-06,0.0001422071118314,9.357458204002886e-06,0.01687499999999975
5.407269231,2.611968706327085e-06,2.676771252643543e-06,3.030426775981612e-06,7.087683729631941e-06,0.0001408659894888,9.05891823208043e-06,0.017394230999999927
5.407788462,2.6036382774255407e-06,2.6800184852350303e-06,3.0486234888978727e-06,7.075208100785839e-06,0.0001406443218668,8.667680832582386e-06,0.017913462000000102
5.408307692,2.6021173213014087e-06,2.6796094529604944e-06,3.0706086989026643e-06,7.069908582010756e-06,0.0001411000234336,8.174530444710227e-06,0.018432692000000195
5.408826923,2.602153273975205e-06,2.6753483400474767e-06,3.0844358004970727e-06,7.069345560253739e-06,0.0001412622323969,7.763245560596457e-06,0.01895192300000037
5.409346154,2.60109041156384e-06,2.671576908569794e-06,3.094413352246216e-06,7.074168996682504e-06,0.0001408043763322,7.676200958193114e-06,0.019471153999999657
5.409865385,2.597271527314392e-06,2.6732844202034883e-06,3.120373603290893e-06,7.078338878265976e-06,0.0001399369298814,7.610071133812933e-06,0.019990384999999833
5.410384615,2.586883906783326e-06,2.670310372584898e-06,3.155063336088113e-06,7.062650067169503e-06,0.0001389685882275,7.0745601709763335e-06,0.020509614999999926
5.410903846,2.57435011388876e-06,2.66078773232083e-06,3.1825067783423418e-06,7.009080172331193e-06,0.00013817382006,6.249859589512697e-06,0.0210288460000001
5.411423077,2.567539332530521e-06,2.6565112514325638e-06,3.1998677922549367e-06,6.910596657248791e-06,0.0001376849122637,5.647832175268357e-06,0.021548077000000276
5.411942308,2.565513853565621e-06,2.656710218239687e-06,3.2017884278452474e-06,6.778270214481892e-06,0.0001374504524689,5.374501492658122e-06,0.022067308000000452
5.412461538,2.5641964599245813e-06,2.656846634150317e-06,3.192652279722738e-06,6.643759991910396e-06,0.0001373883919051,5.263321896139527e-06,0.022586537999999656
5.412980769,2.5629739691043568e-06,2.656788230886096e-06,3.184176968310347e-06,6.5326925287045655e-06,0.0001373861419806,5.209959130044831e-06,0.02310576899999983
5.4135,2.5652552454074165e-06,2.656107303362578e-06,3.179923886968033e-06,6.453260073687339e-06,0.0001373863325228,5.179484011205949e-06,0.023625000000000007
5.414019231,2.5724379848497344e-06,2.6553182198394125e-06,3.1784183038946505e-06,6.4121121967945726e-06,0.0001375608764521,5.154251348705656e-06,0.024144231000000183
5.414538462,2.5760465402072324e-06,2.658199230466215e-06,3.178174935758908e-06,6.407619875424833e-06,0.0001378396181044,5.123448094571442e-06,0.024663462000000358
5.415057692,2.5758930336642333e-06,2.664785010200947e-06,3.178177416158245e-06,6.400026423217569e-06,0.0001378917542523,5.089097891590286e-06,0.02518269200000045
5.415576923,2.5761179647562142e-06,2.668553888764774e-06,3.178049090232562e-06,6.317853649487887e-06,0.0001378903881071,5.058482023921397e-06,0.025701922999999738
5.416096154,2.562502836275492e-06,2.66735361802808e-06,3.1774514389880062e-06,6.138646443527291e-06,0.0001381053330652,5.030139932673269e-06,0.026221153999999913
5.416615385,2.5406327859442568e-06,2.665669009395614e-06,3.175425311464018e-06,5.9358911878059244e-06,0.0001380015167331,4.999636239192843e-06,0.02674038500000009
5.417134615,2.534199269030035e-06,2.6663166874787903e-06,3.173472274163973e-06,5.783432512943527e-06,0.0001371657841025,4.969475520175911e-06,0.02725961500000018
5.417653846,2.534984982099693e-06,2.6667481832167657e-06,3.1784219064860457e-06,5.666779985938341e-06,0.0001363825357783,4.951617417683042e-06,0.027778846000000357
5.418173077,2.5354529049523195e-06,2.6621436982947084e-06,3.1917680796749718e-06,5.513384083174894e-06,0.0001364671281692,4.949112471375756e-06,0.028298076999999644
5.418692308,2.540778445917334e-06,2.6484624251480432e-06,3.206576789422436e-06,5.2322447893938206e-06,0.000136976563752,4.950395754383422e-06,0.02881730799999982
5.419211538,2.5421268403646927e-06,2.624635093394386e-06,3.216540466217648e-06,4.807934298516755e-06,0.0001370673901912,4.946602387012195e-06,0.029336537999999912
5.419730769,2.54072229039596e-06,2.595842215672234e-06,3.215694835929032e-06,4.4021175468783135e-06,0.000136717308307,4.925563901791449e-06,0.029855769000000087
5.42025,2.548255484444169e-06,2.5725201952831945e-06,3.199453207643351e-06,4.192097364384565e-06,0.000136451927991,4.886108035991934e-06,0.030375000000000263
5.420769231,2.5587592033622386e-06,2.559888217245877e-06,3.16797469421633e-06,4.145309323877339e-06,0.0001364461944759,4.855688916790373e-06,0.03089423100000044
5.421288462,2.5632633457870588e-06,2.554712125760464e-06,3.128200042582924e-06,4.154558900368643e-06,0.0001364823716046,4.847554468763511e-06,0.031413461999999726
5.421807692,2.564739841942933e-06,2.551764294980596e-06,3.0861441194277542e-06,4.181056157972431e-06,0.0001364669186839,4.847025934198669e-06,0.03193269199999982
5.422326923,2.566394436419556e-06,2.5475618197109555e-06,3.046296529522977e-06,4.1978011124435705e-06,0.0001364555806632,4.851096035886471e-06,0.032451922999999994
5.422846154,2.569774213858996e-06,2.5423813002344764e-06,3.020493219985364e-06,4.190637661700674e-06,0.0001364555636362,4.865523304321392e-06,0.03297115400000017
5.423365385,2.5735021109232624e-06,2.539869566624444e-06,3.0117073539127057e-06,4.173752226824646e-06,0.0001364428196981,4.877991129471258e-06,0.033490385000000344
5.423884615,2.573633948342594e-06,2.542270842913644e-06,3.00902268746912e-06,4.156158488225694e-06,0.0001363997565904,4.866950606866219e-06,0.03400961500000044
5.424403846,2.575501033479258e-06,2.546558582613639e-06,3.0063820772385256e-06,4.144013837165334e-06,0.0001363358082844,4.826803594342645e-06,0.034528845999999724
5.424923077,2.5768383165814404e-06,2.54824233917032e-06,3.004647136025627e-06,4.135643889785483e-06,0.0001362873955917,4.771180926423804e-06,0.0350480769999999
5.425442308,2.5676032148731137e-06,2.547781242506839e-06,3.004239447335898e-06,4.114735811994702e-06,0.0001362625025413,4.716591035019427e-06,0.035567308000000075
5.425961538,2.5576945983089703e-06,2.5476216416689413e-06,3.0053526396896164e-06,4.086758874696957e-06,0.000136160568653,4.671774525509163e-06,0.03608653800000017
5.426480769,2.5544285239621425e-06,2.545898604206737e-06,3.009260914372907e-06,4.0688191531343846e-06,0.0001358530355854,4.641255552191574e-06,0.03660576900000034
5.427,2.5560662089392378e-06,2.543142713077585e-06,3.013470282986921e-06,4.056055210739044e-06,0.0001354135255431,4.62777898733621e-06,0.03712499999999963
5.427519231,2.557154958257748e-06,2.54434224252817e-06,3.0146330949988203e-06,4.042280181668913e-06,0.0001351134568575,4.626311225390738e-06,0.037644230999999806
5.428038462,2.5340423901130595e-06,2.546421077025822e-06,3.0146202412422243e-06,4.027472012830735e-06,0.0001350843575767,4.625489861098867e-06,0.03816346199999998
5.428557692,2.489202213685968e-06,2.5401102107843182e-06,3.015704584554488e-06,4.014024078570731e-06,0.0001350121320264,4.620202647845188e-06,0.038682692000000074
5.429076923,2.459288603238854e-06,2.523057067472006e-06,3.018234306082409e-06,4.0100701756278105e-06,0.0001343877213435,4.616349546935075e-06,0.03920192300000025
5.429596154,2.450559998556004e-06,2.5021762470759334e-06,3.020749142402169e-06,4.010222262330171e-06,0.0001331641154849,4.619552847815065e-06,0.039721154000000425
5.430115385,2.452052969391192e-06,2.483909606045302e-06,3.0198429179955005e-06,4.009680812928602e-06,0.0001318131080992,4.626850077568623e-06,0.04024038499999971
5.430634615,2.4650241130234927e-06,2.4691556044689377e-06,3.015003192820951e-06,4.009044808329267e-06,0.0001307177656882,4.634681975676308e-06,0.040759614999999805
5.431153846,2.477433317851811e-06,2.459517997405947e-06,3.012223393115524e-06,3.99873797290272e-06,0.000129930055647,4.645144964879885e-06,0.04127884599999998
5.431673077,2.4784804317205963e-06,2.4607744218778985e-06,3.014575247604764e-06,3.988194567185998e-06,0.0001294087864704,4.660832027070131e-06,0.041798077000000156
5.432192308,2.4751898161189564e-06,2.4706108158066867e-06,3.011829356378785e-06,3.991654861183443e-06,0.0001291491973225,4.6791757094054746e-06,0.04231730800000033
5.432711538,2.4729513127593742e-06,2.472063086940297e-06,2.9971633420761687e-06,4.0009790747900204e-06,0.0001290877970248,4.694737684173251e-06,0.042836538000000424
5.433230769,2.471250859428712e-06,2.457616825248925e-06,2.981669385018867e-06,4.006192424180502e-06,0.0001290922384664,4.7059249935571694e-06,0.04335576899999971
5.43375,2.469680765326131e-06,2.439398976971288e-06,2.9746236615561326e-06,4.003541143897608e-06,0.0001291292577277,4.717072034690424e-06,0.043874999999999886
5.434269231,2.468744308429721e-06,2.427010930317361e-06,2.9731130266248524e-06,3.9934823534292295e-06,0.0001292419055318,4.737043826070234e-06,0.04439423100000006
5.434788462,2.4714985111172926e-06,2.419707443166872e-06,2.973034009857956e-06,3.977111198287514e-06,0.0001293778520285,4.767887772573518e-06,0.04491346200000024
5.435307692,2.4761411407268505e-06,2.4158584311730617e-06,2.972930473711443e-06,3.953350518140012e-06,0.0001294575983411,4.794040247970832e-06,0.04543269200000033
5.435826923,2.475614092002344e-06,2.415042248390225e-06,2.972292777239774e-06,3.920319972889377e-06,0.0001294851789568,4.800603460915044e-06,0.04595192299999962
5.436346154,2.4688260999219554e-06,2.416033440917161e-06,2.971989881431373e-06,3.881624345669202e-06,0.0001294814578266,4.795657154466926e-06,0.04647115399999979
5.436865385,2.4557271685245247e-06,2.417026566345821e-06,2.9723423209824317e-06,3.839116195768655e-06,0.0001294512551096,4.794123960670825e-06,0.04699038499999997
5.437384615,2.4411705741717573e-06,2.4151955438733937e-06,2.972379798409849e-06,3.787442839096061e-06,0.0001293916612049,4.7946672538897485e-06,0.04750961500000006
5.437903846,2.4389016913986518e-06,2.4095467713642364e-06,2.9724492005002524e-06,3.7313602406832e-06,0.0001291649215562,4.793310420919948e-06,0.048028846000000236
5.438423077,2.4419139360793607e-06,2.4072130986731293e-06,2.9721062382380106e-06,3.677730844919112e-06,0.000128376213756,4.792639806738974e-06,0.04854807700000041
5.438942308,2.4392890581218165e-06,2.4122502318510824e-06,2.9709385115820898e-06,3.6332029941546393e-06,0.0001267034799128,4.791790002520177e-06,0.0490673079999997
5.439461538,2.4397291802087183e-06,2.4162854588289776e-06,2.9702152555050844e-06,3.615512431143075e-06,0.0001244795793223,4.790961591638412e-06,0.04958653799999979
5.439980769,2.4349831411232155e-06,2.413539050115117e-06,2.9701274837989994e-06,3.620460437162056e-06,0.0001226703418204,4.798335692374502e-06,0.05010576899999997
5.4405,2.4253684305059283e-06,2.408596226015952e-06,2.9706476648911554e-06,3.623314813763202e-06,0.0001219691850956,4.811841190572815e-06,0.05062500000000014
5.441019231,2.428120537148761e-06,2.407553285614453e-06,2.9729831019452987e-06,3.620742833535581e-06,0.0001220104494466,4.816756797553527e-06,0.05114423100000032
5.441538462,2.4230296788432694e-06,2.411249596779984e-06,2.978278623080833e-06,3.620665342982417e-06,0.000122082362905,4.816758948255134e-06,0.051663461999999605
5.442057692,2.4014299030311053e-06,2.4168567991294548e-06,2.984396839650611e-06,3.6203165668824297e-06,0.0001221570854472,4.81334488788975e-06,0.0521826919999997
5.442576923,2.3886116937938463e-06,2.419314506062881e-06,2.987683092953738e-06,3.602077929468164e-06,0.0001222911294772,4.802330894078608e-06,0.05270192299999987
5.443096154,2.386501175108827e-06,2.415663841719499e-06,2.9890105218934817e-06,3.5558348731417574e-06,0.0001222726529369,4.803384228133296e-06,0.05322115400000005
5.443615385,2.386462255481206e-06,2.409855542059157e-06,2.9900347699568105e-06,3.510046312997078e-06,0.0001225120603312,4.80852063806788e-06,0.053740385000000224
5.444134615,2.382275970182199e-06,2.4089259751848525e-06,2.993853371310026e-06,3.489216000332587e-06,0.0001232479333192,4.788159692238344e-06,0.054259615000000316
5.444653846,2.363559240619409e-06,2.4159438218138814e-06,3.004736702669779e-06,3.480041182384324e-06,0.0001236261876103,4.760026693835875e-06,0.054778845999999604
5.445173077,2.339253690006651e-06,2.4253441544815757e-06,3.015064218805601e-06,3.4584297075804675e-06,0.0001232628682221,4.7541581652143145e-06,0.05529807699999978
5.445692308,2.3265137348889125e-06,2.4297050208659745e-06,3.0169281300713715e-06,3.397080885353317e-06,0.0001228065678942,4.767481497284517e-06,0.055817307999999954
5.446211538,2.3230670340438635e-06,2.428370203008345e-06,3.016995472633611e-06,3.30064475596122e-06,0.0001226491771257,4.7836460635405325e-06,0.05633653800000005
5.446730769,2.332389997300423e-06,2.4242488833296068e-06,3.018599358313546e-06,3.218435278471456e-06,0.000122654308751,4.791575378501094e-06,0.05685576900000022
5.44725,2.3575809495999893e-06,2.4189772075290814e-06,3.0176022330427685e-06,3.1733305458125417e-06,0.0001227089935514,4.791857662379556e-06,0.0573750000000004
5.447769231,2.37414243420458e-06,2.412956301833441e-06,3.0192802820652307e-06,3.145026941371849e-06,0.0001228408313343,4.794885634199873e-06,0.057894230999999685
5.448288462,2.374955934724095e-06,2.407966551416692e-06,3.031337129796212e-06,3.108964338129707e-06,0.0001231140423715,4.805214158851683e-06,0.05841346199999986
5.448807692,2.376481063689145e-06,2.4073413740272323e-06,3.048184925117537e-06,3.048026683247104e-06,0.0001235150962731,4.813947217467417e-06,0.05893269199999995
5.449326923,2.3692183323182524e-06,2.407093981843542e-06,3.0591900170986217e-06,2.9671230632186165e-06,0.0001238951018382,4.813784515240002e-06,0.05945192300000013
5.449846154,2.338166036001372e-06,2.4006461969397617e-06,3.0611030615735207e-06,2.899620319434212e-06,0.0001241864427435,4.8088008857611e-06,0.059971154000000304
5.450365385,2.3025362970841746e-06,2.3944117421219388e-06,3.0534317779216026e-06,2.8713682365435683e-06,0.0001244303332488,4.805522334157437e-06,0.06049038499999959
5.450884615,2.286091250743863e-06,2.395585376506724e-06,3.036902770263016e-06,2.8692226032310248e-06,0.0001245561205542,4.806261655169164e-06,0.061009614999999684
5.451403846,2.28354394871165e-06,2.399213540732596e-06,3.0226891799643564e-06,2.866949899875827e-06,0.0001246413794879,4.808630930948517e-06,0.06152884599999986
5.451923077,2.284075548837312e-06,2.400616883528517e-06,3.0248643469192875e-06,2.8563201214736592e-06,0.0001247348647388,4.809081161897125e-06,0.062048077000000035
5.452442308,2.2811748159530142e-06,2.400727469378583e-06,3.042836996578024e-06,2.8419728142742247e-06,0.0001244713606522,4.808822087686075e-06,0.06256730800000021
5.452961538,2.270066367860122e-06,2.4007417982397183e-06,3.063383138511435e-06,2.832126533936326e-06,0.0001238319062259,4.806345162101868e-06,0.0630865380000003
5.453480769,2.2636498376811022e-06,2.401506046207216e-06,3.078007146580254e-06,2.829925292290562e-06,0.0001233892616115,4.797933681897304e-06,0.06360576899999959
5.454,2.2715108697844644e-06,2.404282661866134e-06,3.0887355463830776e-06,2.833206969674177e-06,0.0001233279337523,4.790018159683709e-06,0.06412499999999977
5.454519231,2.282973486693392e-06,2.4042197625749144e-06,3.0988686750666717e-06,2.8420218936064825e-06,0.0001233316562655,4.788334479580545e-06,0.06464423099999994
5.455038462,2.287399508064933e-06,2.396309442189459e-06,3.11012606496888e-06,2.8504299879700614e-06,0.0001233203091408,4.789537147494156e-06,0.06516346200000012
5.455557692,2.291991824150993e-06,2.386406491706386e-06,3.12163286656234e-06,2.852722010629492e-06,0.0001234307833142,4.790678105300954e-06,0.06568269200000021
5.456076923,2.301292840771799e-06,2.381437793409236e-06,3.13074926263854e-06,2.8529496584204106e-06,0.0001235593641491,4.788168743329936e-06,0.06620192300000038
5.456596154,2.301591643287167e-06,2.3825137074151024e-06,3.140106983945406e-06,2.853272175526866e-06,0.0001233669092854,4.767359276484924e-06,0.06672115399999967
5.457115385,2.297515210772516e-06,2.384708553102205e-06,3.153747420151112e-06,2.8560702758580303e-06,0.0001226595924234,4.717401400272315e-06,0.06724038499999985
5.457634615,2.303515179461118e-06,2.3843920308390315e-06,3.166760349815493e-06,2.8591453525776714e-06,0.0001215896385202,4.6648480446235e-06,0.06775961499999994
5.458153846,2.311334882838397e-06,2.384300961349469e-06,3.166155942340895e-06,2.849792459050591e-06,0.0001205277692965,4.644552458865068e-06,0.06827884600000012
5.458673077,2.316096419752084e-06,2.38329286011594e-06,3.147087248761465e-06,2.835206020909482e-06,0.000119789316387,4.648327154293619e-06,0.06879807700000029
5.459192308,2.317234869984345e-06,2.381463714584886e-06,3.1202358213794987e-06,2.831452153572997e-06,0.0001194053628145,4.65055470203385e-06,0.06931730800000047
5.459711538,2.3112962468342435e-06,2.3849393422323378e-06,3.099040946208169e-06,2.833042258926061e-06,0.0001192748970594,4.639316939744985e-06,0.06983653799999967
5.460230769,2.3087728174548946e-06,2.389519018453815e-06,3.0893229160493544e-06,2.8321493766557474e-06,0.0001193006192465,4.612858934452158e-06,0.07035576899999985
5.46075,2.308426118054335e-06,2.3889723720057866e-06,3.0879309462170966e-06,2.820966846699193e-06,0.0001192737099063,4.581405066758672e-06,0.07087500000000002
5.461269231,2.298748738382631e-06,2.388870400418685e-06,3.089570084670065e-06,2.796043248387668e-06,0.0001191307829524,4.559538586657127e-06,0.0713942310000002
5.461788462,2.292476844301423e-06,2.3875135031190945e-06,3.092098616455463e-06,2.7737020748488243e-06,0.0001190799867167,4.551868698947058e-06,0.07191346200000037
5.462307692,2.295324993360183e-06,2.381303819805365e-06,3.093036354929116e-06,2.7647851398859547e-06,0.000119101168256,4.555514251936611e-06,0.07243269200000046
5.462826923,2.291930455181604e-06,2.3780816698800025e-06,3.091688871429897e-06,2.7630497061300053e-06,0.0001190440102629,4.5661339194935484e-06,0.07295192299999975
5.463346154,2.2787878494347904e-06,2.3791664000373805e-06,3.0918621678589923e-06,2.7645572460475574e-06,0.0001191739822362,4.575503509313409e-06,0.07347115399999993
5.463865385,2.263956075445104e-06,2.3788987637439046e-06,3.0930844451341902e-06,2.764069460387664e-06,0.0001196276350932,4.576437514358007e-06,0.0739903850000001
5.464384615,2.264372827918788e-06,2.377076487925001e-06,3.089491354546139e-06,2.762036023103221e-06,0.0001199620430078,4.576442670447603e-06,0.0745096150000002
5.464903846,2.2909867607026867e-06,2.375840695526554e-06,3.0792069234177413e-06,2.7802901831303003e-06,0.0001199860818808,4.587834379761444e-06,0.07502884600000037
5.465423077,2.322091147748085e-06,2.3757196908858063e-06,3.0637916265922007e-06,2.817192923998249e-06,0.0001200684313467,4.606640351534901e-06,0.07554807699999966
5.465942308,2.333207595325677e-06,2.376582506214368e-06,3.046260945201355e-06,2.835542122301294e-06,0.0001204183711703,4.610543075312737e-06,0.07606730799999983
5.466461538,2.332028964446222e-06,2.3782252252513798e-06,3.0309757716512224e-06,2.8306797326490386e-06,0.0001207708956046,4.579245494276312e-06,0.07658653799999993
5.466980769,2.331949793840127e-06,2.3803431987322385e-06,3.0191939062119987e-06,2.826365001252651e-06,0.0001208515469181,4.528011184500345e-06,0.0771057690000001
5.4675,2.332124538067994e-06,2.3820358423218365e-06,3.008287634690744e-06,2.825306527133652e-06,0.0001208922758411,4.490376431522314e-06,0.07762500000000028
5.468019231,2.329151960443503e-06,2.38183799727757e-06,2.995654745384067e-06,2.8264745026303645e-06,0.0001214005712173,4.47665312713508e-06,0.07814423100000045
5.468538462,2.314774313761677e-06,2.379637779504025e-06,2.9838350503480475e-06,2.8321149508226517e-06,0.0001223218188558,4.47801341100856e-06,0.07866346199999974
5.469057692,2.296567563032825e-06,2.3763738960555967e-06,2.979231097881932e-06,2.8359252811617765e-06,0.0001230182199602,4.480231823600605e-06,0.07918269199999983
5.469576923,2.294833749183925e-06,2.376778530658643e-06,2.9801743814940176e-06,2.836604990696158e-06,0.0001232115866122,4.475724969157547e-06,0.07970192300000001
5.470096154,2.2958985189090263e-06,2.389196653878594e-06,2.979837172072207e-06,2.8351770126038413e-06,0.0001231845141852,4.468655510766208e-06,0.08022115400000018
5.470615385,2.284083505420824e-06,2.4089025649988373e-06,2.979278184630249e-06,2.834722851483792e-06,0.0001231785597055,4.464383232215152e-06,0.08074038500000036
5.471134615,2.275189748173662e-06,2.42349459099933e-06,2.9787686286863896e-06,2.8420427498152963e-06,0.0001232175964117,4.464717328651302e-06,0.08125961500000045
5.471653846,2.2768095894291136e-06,2.431070376221865e-06,2.9716981558219163e-06,2.853594341869579e-06,0.0001232702335737,4.468393299792663e-06,0.08177884599999974
5.472173077,2.280410861373113e-06,2.4336043349994126e-06,2.960507853194378e-06,2.8662406071108137e-06,0.0001233283349666,4.471328799730225e-06,0.08229807699999991
5.472692308,2.2814558224032933e-06,2.43114330319829e-06,2.9590313781646866e-06,2.8830613181350057e-06,0.0001234424162202,4.471677691803857e-06,0.08281730800000009
5.473211538,2.278983344948682e-06,2.428029447457873e-06,2.972059220291131e-06,2.901549174525017e-06,0.0001236213113728,4.472222315057737e-06,0.08333653800000018
5.473730769,2.282636488623776e-06,2.431115867606813e-06,2.991642637532729e-06,2.921970847886219e-06,0.0001237813225488,4.475001794731817e-06,0.08385576900000036
5.47425,2.299176513587289e-06,2.4388329847524978e-06,3.015398894574108e-06,2.9482734134794484e-06,0.0001238709192242,4.477836438011185e-06,0.08437499999999964
5.474769231,2.306179289459264e-06,2.4440026889159965e-06,3.0435765347452926e-06,2.973853343034477e-06,0.0001239039215255,4.4776283062491735e-06,0.08489423099999982
5.475288462,2.304584262478733e-06,2.446627149782506e-06,3.0641659885278228e-06,2.9890899243200533e-06,0.0001238943698652,4.474435416019166e-06,0.085413462
5.475807692,2.314435570454566e-06,2.44883686464202e-06,3.0697758736869787e-06,2.99612615373432e-06,0.0001238588953127,4.4700974390463415e-06,0.08593269200000009
5.476326923,2.315613740318263e-06,2.449955752301227e-06,3.068660036495631e-06,3.0019732016063967e-06,0.0001238465914524,4.4651305110866575e-06,0.08645192300000026
5.476846154,2.310042512510964e-06,2.451262421255864e-06,3.0640443458899145e-06,3.009450082125305e-06,0.0001238893803357,4.460029743430151e-06,0.08697115400000044
5.477365385,2.3179682872321683e-06,2.4539938777015117e-06,3.0584320294012665e-06,3.013070158887466e-06,0.0001239530540612,4.45628926461145e-06,0.08749038499999973
5.477884615,2.3201925746388155e-06,2.458149178246634e-06,3.067306895577665e-06,3.005010561230105e-06,0.0001239805051299,4.453431364271561e-06,0.08800961499999982
5.478403846,2.321376206329587e-06,2.4617899965859545e-06,3.089259129451099e-06,2.9946264354539677e-06,0.0001239242464488,4.452432831049359e-06,0.088528846
5.478923077,2.3362142261102573e-06,2.4640349824374206e-06,3.099860352232514e-06,2.9939987108576465e-06,0.0001238256639645,4.454327786439439e-06,0.08904807700000017
5.479442308,2.346935740623295e-06,2.468234938202205e-06,3.0994905642175585e-06,2.997136244108956e-06,0.0001238914097337,4.453495015642735e-06,0.08956730800000035
5.479961538,2.3487147861800493e-06,2.480783481138932e-06,3.1093745337014886e-06,2.9970278662700662e-06,0.0001241166660933,4.447686475234903e-06,0.09008653800000044
5.480480769,2.348424918416083e-06,2.5000250358600502e-06,3.1226450056354167e-06,2.9942366320180884e-06,0.0001239591257005,4.4428105951006085e-06,0.09060576899999973
5.481,2.348908958976476e-06,2.510300934727542e-06,3.1243298706937505e-06,2.9923722560040248e-06,0.0001230004655864,4.440595540527428e-06,0.0911249999999999
5.481519231,2.347321530095108e-06,2.5064971306504277e-06,3.121680687444037e-06,2.993008968522872e-06,0.0001215952111645,4.436418201964443e-06,0.09164423100000008
5.482038462,2.339550260632329e-06,2.5005099918574912e-06,3.120909480124968e-06,2.992123707995924e-06,0.0001204552472134,4.426258618045187e-06,0.09216346200000025
5.482557692,2.3319895645899188e-06,2.4980487295260745e-06,3.1237402904318056e-06,2.991176917307308e-06,0.0001199687538542,4.411910441312632e-06,0.09268269200000034
5.483076923,2.328740376536805e-06,2.4961849224429267e-06,3.130319653025666e-06,2.9915190302889533e-06,0.0001199519894837,4.404631920514701e-06,0.09320192299999963
5.483596154,2.326525995720934e-06,2.491554627794955e-06,3.130775496703855e-06,2.986366454302761e-06,0.00011989702801,4.404649831578772e-06,0.0937211539999998
5.484115385,2.3215893863581795e-06,2.4810192379983578e-06,3.125362767427156e-06,2.981379521440217e-06,0.0001195737988012,4.39359925209409e-06,0.09424038499999998
5.484634615,2.3091095599684675e-06,2.466760753210431e-06,3.123762479529068e-06,2.9893705598835767e-06,0.0001192437266612,4.371259421648921e-06,0.09475961500000007
5.485153846,2.2935336516943658e-06,2.4576671101451883e-06,3.123926505172383e-06,3.0099597338638355e-06,0.0001191643851164,4.351455444261707e-06,0.09527884600000025
5.485673077,2.289382450826845e-06,2.4564492923247795e-06,3.128492133848265e-06,3.0372170837965465e-06,0.0001192048688876,4.333980285586527e-06,0.09579807700000043
5.486192308,2.2862612878869594e-06,2.4603231269560785e-06,3.141772592759837e-06,3.060291018767174e-06,0.0001191795542138,4.308082202729412e-06,0.09631730799999971
5.486711538,2.2591105821778856e-06,2.470077280027656e-06,3.1531480134196785e-06,3.068506428094359e-06,0.0001191869176134,4.263056399950805e-06,0.0968365379999998
5.487230769,2.224309101030928e-06,2.480329252147768e-06,3.154597282630117e-06,3.0684132720389144e-06,0.0001191923693784,4.200389513454025e-06,0.09735576899999998
5.48775,2.214089807812983e-06,2.4860221705215023e-06,3.149736987029392e-06,3.068396600989191e-06,0.0001188772396427,4.135517921988008e-06,0.09787500000000016
5.488269231,2.219539937880322e-06,2.490251658589503e-06,3.147353992574793e-06,3.066818263292089e-06,0.0001183877887801,4.086828494801103e-06,0.09839423100000033
5.488788462,2.220828849267692e-06,2.4982508796441547e-06,3.1493648459349966e-06,3.067276573334205e-06,0.0001182135349007,4.065469646803525e-06,0.09891346199999962
5.489307692,2.2195995538283684e-06,2.5152333761676643e-06,3.148266077804611e-06,3.0709701539756366e-06,0.0001182632100387,4.067387053249761e-06,0.09943269199999971
5.489826923,2.218948430687423e-06,2.535368853674413e-06,3.1422881377069384e-06,3.0720013279433578e-06,0.0001182295357706,4.074813133771487e-06,0.09995192299999989
5.490346154,2.219042514015503e-06,2.54515453082869e-06,3.140401813785207e-06,3.071859074024806e-06,0.0001182215423742,4.075826132607619e-06,0.10047115400000006
5.490865385,2.218214898381903e-06,2.541994701444096e-06,3.145082208238801e-06,3.073771182573381e-06,0.000118350037671,4.0777980767117325e-06,0.10099038500000024
5.491384615,2.213482395632049e-06,2.53531596841245e-06,3.1456391274992613e-06,3.0748709073534093e-06,0.0001185149601692,4.089119462281988e-06,0.10150961500000033
5.491903846,2.2096379504238157e-06,2.5313141108807363e-06,3.1358209569157768e-06,3.0748806458571927e-06,0.0001186509554085,4.0985256512196405e-06,0.10202884599999962
5.492423077,2.2069930186974017e-06,2.5290087695562853e-06,3.121709650481881e-06,3.073823017277397e-06,0.0001187157684117,4.094998380694619e-06,0.1025480769999998
5.492942308,2.200906671542913e-06,2.522680439834725e-06,3.1099120193289755e-06,3.0683737940656744e-06,0.0001186986083793,4.08663478872702e-06,0.10306730799999997
5.493461538,2.188988957903752e-06,2.5075400712453286e-06,3.1002299849974515e-06,3.0638195401596064e-06,0.0001186950091515,4.081655261580216e-06,0.10358653800000006
5.493980769,2.1679296606841706e-06,2.4878369328842468e-06,3.0906883552978296e-06,3.06474971242472e-06,0.0001186235240608,4.087161515768628e-06,0.10410576900000024
5.4945,2.151600559747752e-06,2.4691782080248407e-06,3.0822579427139084e-06,3.064006238046154e-06,0.0001181941238641,4.115609351904339e-06,0.10462500000000041
5.495019231,2.1507964089309497e-06,2.4511553179342667e-06,3.0786987573095697e-06,3.060318209838825e-06,0.0001175742793751,4.14803534126845e-06,0.1051442309999997
5.495538462,2.150114520882294e-06,2.430712420649803e-06,3.079807040276457e-06,3.0575530195335068e-06,0.0001173400487714,4.136759848723571e-06,0.10566346199999987
5.496057692,2.1459926732840604e-06,2.407758992259216e-06,3.0785641952249896e-06,3.0559524854910656e-06,0.0001174116035459,4.0858752738160185e-06,0.10618269199999997
5.496576923,2.1470064889020115e-06,2.385502245360754e-06,3.0747802863059915e-06,3.0562876559172965e-06,0.0001172602644516,4.056510160571134e-06,0.10670192300000014
5.497096154,2.1503162675927768e-06,2.367030558149305e-06,3.0762698429213463e-06,3.055060871151075e-06,0.0001170609633592,4.0670459437692445e-06,0.10722115400000032
5.497615385,2.1500653908905404e-06,2.3528227768539754e-06,3.080722526464096e-06,3.052931732489668e-06,0.0001172842749248,4.081973465989552e-06,0.1077403849999996
5.498134615,2.1445184761075826e-06,2.3386116895789765e-06,3.0811689124716747e-06,3.0560437548032703e-06,0.0001177749500131,4.085099864188e-06,0.1082596149999997
5.498653846,2.1370295345155075e-06,2.323848598098142e-06,3.0785517274281586e-06,3.058952749285705e-06,0.0001181596900389,4.081902893170173e-06,0.10877884599999987
5.499173077,2.1329561720674835e-06,2.3170802876837987e-06,3.0762819710154978e-06,3.056441165873433e-06,0.0001183064657637,4.073006200468028e-06,0.10929807700000005
5.499692308,2.1324876053810896e-06,2.318538627644502e-06,3.076646213249503e-06,3.0526887597206777e-06,0.0001181285149465,4.062301935403427e-06,0.10981730800000022
5.500211538,2.13233283046982e-06,2.317537952446253e-06,3.0815237144864437e-06,3.0492212453607643e-06,0.0001178004450392,4.05568659016215e-06,0.11033653800000032
5.500730769,2.1320383565167027e-06,2.3142581745666758e-06,3.088463501762686e-06,3.042231585860332e-06,0.0001176898403577,4.050586539515258e-06,0.1108557689999996
5.50125,2.132455647444406e-06,2.3137581772923504e-06,3.0918975731244075e-06,3.025222534681696e-06,0.0001177202326951,4.046426416571382e-06,0.11137499999999978
5.501769231,2.1332255652538444e-06,2.3121268015941584e-06,3.0890060684527374e-06,2.9947117700075505e-06,0.0001177216218416,4.041647684928326e-06,0.11189423099999996
5.502288462,2.1324164999561464e-06,2.3093508609780443e-06,3.078086882481591e-06,2.957245187897029e-06,0.0001177257954328,4.032182049685585e-06,0.11241346200000013
5.502807692,2.1284769830099358e-06,2.306517271285008e-06,3.06314958388684e-06,2.927507596044717e-06,0.000117633403836,4.027230880442231e-06,0.11293269200000022
5.503326923,2.129191566714625e-06,2.2966543534574256e-06,3.0533695933297283e-06,2.91376064943502e-06,0.000117444780485,4.028327647091072e-06,0.1134519230000004
5.503846154,2.143427329681684e-06,2.280291526457549e-06,3.048543030541836e-06,2.911248514946811e-06,0.0001173344651214,4.0234547365836834e-06,0.11397115399999969
5.504365385,2.1595249876596925e-06,2.2655682323970098e-06,3.044670993369872e-06,2.911923719296933e-06,0.0001173314379575,4.0146654521690766e-06,0.11449038499999986
5.504884615,2.159269372206812e-06,2.251984246242023e-06,3.043278203280336e-06,2.910434510379443e-06,0.0001172478657498,4.008734772005262e-06,0.11500961499999995
5.505403846,2.153534515694087e-06,2.234385329804476e-06,3.0433535477835687e-06,2.907868454653936e-06,0.0001169398193274,4.00248433549559e-06,0.11552884600000013
5.505923077,2.1536795595183857e-06,2.2131860134884647e-06,3.042966452188762e-06,2.911514974309695e-06,0.0001165578107856,3.9849053919609135e-06,0.1160480770000003
5.506442308,2.13909594722706e-06,2.1948308165110896e-06,3.042316334687403e-06,2.920776439321747e-06,0.0001163425052582,3.944473846877525e-06,0.11656730799999959
5.506961538,2.1183884958073624e-06,2.186505826887182e-06,3.042886289026873e-06,2.924677332294171e-06,0.0001164582576332,3.890999911508836e-06,0.11708653799999968
5.507480769,2.118859570869964e-06,2.186297405055405e-06,3.046407836379624e-06,2.921946660542837e-06,0.000117249720201,3.851758370979978e-06,0.11760576899999986
5.508,2.113795009164361e-06,2.186549024662555e-06,3.048580030330389e-06,2.921214639565363e-06,0.0001188400995656,3.838122497849901e-06,0.11812500000000004
5.508519231,2.0945642535317724e-06,2.186405405579051e-06,3.047921407862691e-06,2.9231717918027637e-06,0.0001204060680973,3.843606151989701e-06,0.11864423100000021
5.509038462,2.090968739731989e-06,2.1861862344092297e-06,3.0483062365961925e-06,2.924448810953464e-06,0.0001210486479253,3.860551829082146e-06,0.11916346200000039
5.509557692,2.0863509180034822e-06,2.185878826863712e-06,3.049953714513351e-06,2.924390332267004e-06,0.0001210616439419,3.876764846698922e-06,0.11968269199999959
5.510076923,2.0776487103903624e-06,2.1898848959475333e-06,3.058102498110564e-06,2.9160725965709367e-06,0.0001212869662068,3.881805424698931e-06,0.12020192299999977
5.510596154,2.0932370641666816e-06,2.1964656122149014e-06,3.0751178400797807e-06,2.896892501530829e-06,0.0001218700186545,3.876593481968875e-06,0.12072115399999994
5.511115385,2.1100466709945118e-06,2.199744939641988e-06,3.091280887695044e-06,2.8875585377732025e-06,0.0001224080552978,3.862597784782999e-06,0.12124038500000012
5.511634615,2.108493014728808e-06,2.1998826067819814e-06,3.099629133159836e-06,2.8988403326889595e-06,0.0001226686096193,3.843759445957576e-06,0.12175961500000021
5.512153846,2.10917372150752e-06,2.198939369922009e-06,3.101822712489231e-06,2.9096248151941747e-06,0.0001227147904427,3.830818782022015e-06,0.12227884600000039
5.512673077,2.121676841651185e-06,2.1974338469008632e-06,3.101983222302911e-06,2.912062212132669e-06,0.0001226716158425,3.826373187249694e-06,0.12279807699999967
5.513192308,2.138035113220228e-06,2.196589651359147e-06,3.100745426331747e-06,2.9124786980374457e-06,0.0001225914418513,3.825396642428813e-06,0.12331730799999985
5.513711538,2.1546684961247383e-06,2.197885474699183e-06,3.1014537834974324e-06,2.8955639963682896e-06,0.0001224771064297,3.8265536269375054e-06,0.12383653799999994
5.514230769,2.1758144096124976e-06,2.1989387351204725e-06,3.1058001308015462e-06,2.8625718888515675e-06,0.0001223564931613,3.8268495502481145e-06,0.12435576900000012
5.51475,2.1936449650495984e-06,2.197202587545089e-06,3.1003953038670517e-06,2.8449957049770016e-06,0.0001222767962314,3.823791375196004e-06,0.12487500000000029
5.515269231,2.2006676167332466e-06,2.195945911940468e-06,3.083361144494397e-06,2.8453777542870314e-06,0.0001222434320716,3.822218581934304e-06,0.12539423100000047
5.515788462,2.2020737480285904e-06,2.196235059872468e-06,3.072803467586326e-06,2.846331416423225e-06,0.0001222377598859,3.821999234167922e-06,0.12591346199999975
5.516307692,2.2018306134884888e-06,2.191688762616053e-06,3.071751803362207e-06,2.8446257916325336e-06,0.0001222586982786,3.817281465482846e-06,0.12643269199999985
5.516826923,2.2012019961485592e-06,2.17556881073743e-06,3.0716191632703523e-06,2.8393988184590987e-06,0.000122275257608,3.807237601018972e-06,0.12695192300000002
5.517346154,2.20478705529873e-06,2.1503015685779625e-06,3.073521611593714e-06,2.83264807470143e-06,0.0001221964745288,3.7903624529234217e-06,0.1274711540000002
5.517865385,2.2240063166228363e-06,2.129000527902589e-06,3.082461212189848e-06,2.82962322947048e-06,0.0001220691255254,3.7668229273981816e-06,0.12799038500000037
5.518384615,2.25851752432938e-06,2.123621723795288e-06,3.0958885372189382e-06,2.8305353012683437e-06,0.0001221735769462,3.758412535774964e-06,0.12850961500000047
5.518903846,2.287629883941206e-06,2.131697434701529e-06,3.104057965384569e-06,2.8322595320383788e-06,0.0001225199443234,3.788230825007166e-06,0.12902884599999975
5.519423077,2.296736663682287e-06,2.140431578165181e-06,3.1041988088767737e-06,2.830196550573964e-06,0.0001224923497922,3.826565864671083e-06,0.12954807699999993
5.519942308,2.2926830811427323e-06,2.14314761724811e-06,3.102419428405382e-06,2.823462460295651e-06,0.0001213763905468,3.827947293027298e-06,0.1300673080000001
5.520461538,2.287146260876628e-06,2.1422256286662607e-06,3.0999333556324377e-06,2.8194476400948025e-06,0.0001189102082294,3.805131548310064e-06,0.1305865380000002
5.520980769,2.283245381316348e-06,2.1406619350787086e-06,3.097364957617073e-06,2.823254333270137e-06,0.0001154568752485,3.793077350089096e-06,0.13110576900000037
5.5215,2.2833644512243027e-06,2.1497405164221696e-06,3.095564058586573e-06,2.8342997205044432e-06,0.0001120098050741,3.7929642937550993e-06,0.13162499999999966
5.522019231,2.287401571717972e-06,2.1904443347669247e-06,3.0841500417094684e-06,2.8484843922797666e-06,0.0001095263221963,3.793166488233484e-06,0.13214423099999983
5.522538462,2.289309939695121e-06,2.25729522276071e-06,3.060765105477823e-06,2.854040955305553e-06,0.0001082319588096,3.794065323014533e-06,0.132663462
5.523057692,2.289408610658971e-06,2.314732776776004e-06,3.0418833773494237e-06,2.848025011463609e-06,0.0001077939569124,3.798760563398712e-06,0.1331826920000001
5.523576923,2.2925227248688253e-06,2.346220032131027e-06,3.0322282635781204e-06,2.8399356100445733e-06,0.0001077806264957,3.8032093720372783e-06,0.13370192300000028
5.524096154,2.2981852151220487e-06,2.3598003257426663e-06,3.019310292700757e-06,2.833540257375655e-06,0.0001079339163837,3.80405514958606e-06,0.13422115400000045
5.524615385,2.305361464920691e-06,2.360311490929657e-06,3.0030093950604703e-06,2.8263518724614666e-06,0.0001081007145401,3.805934401446245e-06,0.13474038499999974
5.525134615,2.3084418531424048e-06,2.351616442503798e-06,2.995425419641937e-06,2.812166954201077e-06,0.0001080901598503,3.809571198713346e-06,0.13525961499999983
5.525653846,2.2991945183759176e-06,2.3424460326302517e-06,2.9946161531423576e-06,2.785375976380704e-06,0.0001077929358511,3.81142396871209e-06,0.135778846
5.526173077,2.288355701426364e-06,2.338162997437236e-06,2.986534224074952e-06,2.7539334296553007e-06,0.0001071062678369,3.810928917476289e-06,0.13629807700000018
5.526692308,2.2864257093440773e-06,2.3375564628011514e-06,2.9710052730344077e-06,2.736495488264033e-06,0.0001056718994093,3.799845570442206e-06,0.13681730800000036
5.527211538,2.2879504772154286e-06,2.337659997005766e-06,2.9628138030371462e-06,2.735679230017468e-06,0.0001031966567344,3.775823437926596e-06,0.13733653800000045
5.527730769,2.3018369441609438e-06,2.33682242464082e-06,2.965010694494391e-06,2.7363269444940958e-06,0.0001001368635657,3.758178613909202e-06,0.13785576899999974
5.52825,2.3275252646272884e-06,2.3310529186263145e-06,2.9672757924440263e-06,2.737002319057685e-06,9.769547696090368e-05,3.758099493058268e-06,0.13837499999999991
5.528769231,2.340966145084334e-06,2.317064233148328e-06,2.9661333728799984e-06,2.7392379273912907e-06,9.665754342405943e-05,3.759888013530858e-06,0.1388942310000001
5.529288462,2.341532796644708e-06,2.306321643671146e-06,2.968831173738532e-06,2.738507166211162e-06,9.642455909995158e-05,3.7460597577561726e-06,0.13941346200000027
5.529807692,2.341729549946308e-06,2.3148244513453096e-06,2.9770652767872024e-06,2.741191013612187e-06,9.618746952718945e-05,3.71689183599118e-06,0.13993269200000036
5.530326923,2.342008637449021e-06,2.3333395294029534e-06,2.9767429159273835e-06,2.741102630483304e-06,9.59908218207114e-05,3.682641901728753e-06,0.14045192299999965
5.530846154,2.342375936320202e-06,2.3434814294874937e-06,2.969020556002587e-06,2.7272823160698226e-06,9.577373041598614e-05,3.653047370524042e-06,0.14097115399999982
5.531365385,2.3431135818025147e-06,2.3488705684651965e-06,2.9688803832875983e-06,2.707657471618776e-06,9.539063819572876e-05,3.632420920646468e-06,0.141490385
5.531884615,2.3436231513263488e-06,2.354076309238253e-06,2.9644409857811345e-06,2.6845353350901085e-06,9.52374398804984e-05,3.618269248078237e-06,0.1420096150000001
5.532403846,2.344573590381299e-06,2.3545764672588983e-06,2.9455335389802144e-06,2.662038515804929e-06,9.521996300111156e-05,3.610775233477707e-06,0.14252884600000026
5.532923077,2.3454059128682997e-06,2.3566633964431643e-06,2.9241293304740763e-06,2.65134568834338e-06,9.478631675200608e-05,3.612018540323056e-06,0.14304807700000044
5.533442308,2.347141523067938e-06,2.3630184149671174e-06,2.9003235856339863e-06,2.645370377233698e-06,9.41226278296526e-05,3.616031382806363e-06,0.14356730799999973
5.533961538,2.3508630050076417e-06,2.3662826967031432e-06,2.865695517267376e-06,2.639473159570389e-06,9.370969751764817e-05,3.618020014565059e-06,0.14408653799999982
5.534480769,2.3504152051457053e-06,2.366026468470977e-06,2.8199914940644744e-06,2.631988196628462e-06,9.354093935513034e-05,3.619625764332896e-06,0.144605769
5.535,2.3429322541897192e-06,2.364467338877288e-06,2.7706736699229564e-06,2.6184519336287064e-06,9.342468901070208e-05,3.6249558599561063e-06,0.14512500000000017
5.535519231,2.33510637289146e-06,2.3634788853101304e-06,2.7275886560347803e-06,2.615563861676615e-06,9.333348988205896e-05,3.637296384921565e-06,0.14564423100000035
5.536038462,2.330961437290264e-06,2.3700090615634195e-06,2.695057184039272e-06,2.6184029520311373e-06,9.336664338608042e-05,3.6490224848265567e-06,0.14616346199999963
5.536557692,2.32969720202992e-06,2.384893945137125e-06,2.672166790234219e-06,2.6097932675429085e-06,9.357656531570646e-05,3.6521744127001455e-06,0.14668269199999973
5.537076923,2.329748572096128e-06,2.398136549249262e-06,2.6550704474022905e-06,2.6042676743324478e-06,9.379796509090605e-05,3.651727168344728e-06,0.1472019229999999
5.537596154,2.3297448503542785e-06,2.403792588847345e-06,2.640759148369694e-06,2.604681678718797e-06,9.38163319045888e-05,3.654535278252685e-06,0.14772115400000008
5.538115385,2.329658626266405e-06,2.404835505337568e-06,2.6312367450176684e-06,2.603825256385794e-06,9.38125793618122e-05,3.666589557561204e-06,0.14824038500000025
5.538634615,2.327613035582125e-06,2.4048407906445207e-06,2.62930836289858e-06,2.6044046052925835e-06,9.405957447910856e-05,3.694558399299524e-06,0.14875961500000034
5.539153846,2.322874161984614e-06,2.4041125792513303e-06,2.6314654255806787e-06,2.6018906784787497e-06,9.428834935175917e-05,3.733717024253425e-06,0.14927884599999963
5.539673077,2.320963643968046e-06,2.400207070049517e-06,2.632137813176861e-06,2.596008861073245e-06,9.430774535082036e-05,3.7577019507760415e-06,0.1497980769999998
5.540192308,2.32128234235482e-06,2.3958890403223217e-06,2.632400520593296e-06,2.593077431949731e-06,9.434803706771882e-05,3.749896205574511e-06,0.15031730799999998
5.540711538,2.3193906892120507e-06,2.3945835819310484e-06,2.6335536744033736e-06,2.5928726656537418e-06,9.426320940388331e-05,3.735954075530944e-06,0.15083653800000008
5.541230769,2.3209730051672154e-06,2.393823468762605e-06,2.6335441537487723e-06,2.5932350082345764e-06,9.395401046163515e-05,3.736112637820954e-06,0.15135576900000025
5.54175,2.321738720242513e-06,2.3957386075840853e-06,2.63299415310772e-06,2.595661685072947e-06,9.424565862331156e-05,3.738305992260041e-06,0.15187500000000043
5.542269231,2.315815769490174e-06,2.3995113835022308e-06,2.628686643149665e-06,2.602006677468489e-06,9.569008823434764e-05,3.738339656155694e-06,0.1523942309999997
5.542788462,2.314837989029784e-06,2.400867236268316e-06,2.616369880408407e-06,2.6097016954091005e-06,9.734026785423514e-05,3.739703496977072e-06,0.1529134619999999
5.543307692,2.316617413041512e-06,2.401024005961305e-06,2.5986594488304125e-06,2.612123864829747e-06,9.808745977365944e-05,3.737980457720099e-06,0.15343269199999998
5.543826923,2.313351931909801e-06,2.4016754592868306e-06,2.578959458066427e-06,2.6124878134137363e-06,9.80251396066849e-05,3.736070501357028e-06,0.15395192300000016
5.544346154,2.308980121811406e-06,2.401766067915042e-06,2.5612290635268094e-06,2.62147819746311e-06,9.778460965546536e-05,3.7425673985669662e-06,0.15447115400000033
5.544865385,2.304615895412975e-06,2.401249756200108e-06,2.5486150264979386e-06,2.6330816785415497e-06,9.781623577214428e-05,3.752630676420769e-06,0.15499038499999962
5.545384615,2.296316800147182e-06,2.401218037470041e-06,2.5424262715476107e-06,2.6367049545691147e-06,9.862980395008942e-05,3.760312503852087e-06,0.1555096149999997
5.545903846,2.285340666765864e-06,2.400593412429375e-06,2.542847977320704e-06,2.6369545204692407e-06,0.0001004637727064,3.765862432245217e-06,0.1560288459999999
5.546423077,2.280116137314e-06,2.3976793014547992e-06,2.5419515507682447e-06,2.6210357764512947e-06,0.000102754071903,3.767013693017179e-06,0.15654807700000006
5.546942308,2.2794499937758234e-06,2.392261279442575e-06,2.536631737727668e-06,2.5744592976825338e-06,0.0001047556128632,3.7670495586173385e-06,0.15706730800000024
5.547461538,2.2781617618453725e-06,2.384638966784466e-06,2.5364078820163824e-06,2.5346343272925613e-06,0.0001061985038474,3.766044079288208e-06,0.15758653800000033
5.547980769,2.2749413955788216e-06,2.375072818851869e-06,2.540907855126165e-06,2.5263685975607997e-06,0.0001071451418965,3.760626894659789e-06,0.15810576899999962
5.5485,2.2735951853269394e-06,2.3645966642337315e-06,2.5427363897800034e-06,2.5268992052007903e-06,0.000107705446929,3.754994670115754e-06,0.1586249999999998
5.549019231,2.2796434242272248e-06,2.35530717383904e-06,2.5421883509173467e-06,2.5276137719056297e-06,0.0001079934964691,3.75054874240071e-06,0.15914423099999997
5.549538462,2.280924843217568e-06,2.349332235293587e-06,2.541961027675486e-06,2.5234832704746728e-06,0.0001081436790593,3.745628600506985e-06,0.15966346200000014
5.550057692,2.273875442959965e-06,2.3475233027535057e-06,2.5445383519319915e-06,2.518422006895305e-06,0.0001082214695763,3.7401934882961247e-06,0.16018269200000024
5.550576923,2.2711268298058434e-06,2.347647936726949e-06,2.548975994429015e-06,2.5328747452530317e-06,0.0001082080411716,3.7354794555503903e-06,0.1607019230000004
5.551096154,2.2769519101617407e-06,2.346317053029922e-06,2.549459443857072e-06,2.550358121041926e-06,0.0001081289349728,3.735674313697512e-06,0.1612211539999997
5.551615385,2.2943253201146545e-06,2.345573850141939e-06,2.544847125422965e-06,2.549892573030101e-06,0.0001080721876201,3.7422872193317058e-06,0.16174038499999988
5.552134615,2.310924130203718e-06,2.3472196092333923e-06,2.541158493986001e-06,2.5487680695852974e-06,0.0001080662565536,3.750159334258286e-06,0.16225961499999997
5.552653846,2.3126515232903205e-06,2.3469847058340035e-06,2.540825960386561e-06,2.5558322836476533e-06,0.0001080759174497,3.7537982253834486e-06,0.16277884600000014
5.553173077,2.3123858532223363e-06,2.345520063894031e-06,2.540763241946605e-06,2.564230945116584e-06,0.0001080786731936,3.753875314107754e-06,0.16329807700000032
5.553692308,2.3147608719510934e-06,2.346826690052366e-06,2.5421550303835083e-06,2.574933673559035e-06,0.000108075733785,3.75575631108072e-06,0.1638173079999996
5.554211538,2.3098877181553927e-06,2.34860633528428e-06,2.5462727627954022e-06,2.582820010852494e-06,0.0001080735923506,3.760991180232855e-06,0.1643365379999997
5.554730769,2.3079034684685077e-06,2.3487029336465555e-06,2.5477962325125564e-06,2.5850726563617546e-06,0.0001080728104501,3.76416557260133e-06,0.16485576899999987
5.55525,2.3093835862252195e-06,2.3486998417775087e-06,2.546830475701764e-06,2.586254447749186e-06,0.0001080788646313,3.761248734621055e-06,0.16537500000000005
5.555769231,2.295525380008209e-06,2.3488471358767632e-06,2.5479938648214777e-06,2.587659535140142e-06,0.0001081099124213,3.753231672626089e-06,0.16589423100000023
5.556288462,2.278319226294777e-06,2.3508579034204173e-06,2.5478418950555383e-06,2.5908668972481617e-06,0.0001081632188724,3.7406807535286574e-06,0.1664134620000004
5.556807692,2.2738175372630344e-06,2.3493711140904592e-06,2.544955531041719e-06,2.5859011092837702e-06,0.0001082047469198,3.723173797832536e-06,0.1669326919999996
5.557326923,2.2765602013627515e-06,2.3390924913004944e-06,2.544362499540278e-06,2.5673966491921323e-06,0.000108223813611,3.7034505527285567e-06,0.16745192299999978
5.557846154,2.295237408249749e-06,2.331706841139472e-06,2.5473016254891493e-06,2.549516497422872e-06,0.000108244112536,3.684918109650177e-06,0.16797115399999996
5.558365385,2.3292656969525334e-06,2.331559680717294e-06,2.551163632168477e-06,2.5366177825770665e-06,0.0001082552046068,3.666241016811081e-06,0.16849038500000013
5.558884615,2.3497502958329016e-06,2.331384798750308e-06,2.553205599503929e-06,2.521991240113773e-06,0.0001082003455924,3.6414234532073065e-06,0.16900961500000022
5.559403846,2.350941803710658e-06,2.334900645926904e-06,2.553146436797253e-06,2.5103230992114783e-06,0.0001080594890244,3.603652772275473e-06,0.1695288460000004
5.559923077,2.3502214957876798e-06,2.344249719642701e-06,2.5582706978032503e-06,2.507611462056717e-06,0.0001078954492909,3.558032814949284e-06,0.1700480769999997
5.560442308,2.347470388907692e-06,2.349443943909035e-06,2.5754666907852587e-06,2.5057744352174163e-06,0.0001077920844939,3.523233397862597e-06,0.17056730799999986
5.560961538,2.3444242876015955e-06,2.34915220091771e-06,2.595688668970355e-06,2.505493572584236e-06,0.0001077671593964,3.508310730607595e-06,0.17108653799999995
5.561480769,2.3557264952406863e-06,2.3527139589042457e-06,2.60547517146436e-06,2.513045154727879e-06,0.0001077858776037,3.5071054175048595e-06,0.17160576900000013
5.562,2.378500631202384e-06,2.359093016604326e-06,2.6061484126786286e-06,2.520285129716228e-06,0.0001078315007082,3.515777610068037e-06,0.1721250000000003
5.562519231,2.3927740909462413e-06,2.3619527715258502e-06,2.606428282343121e-06,2.5237764899238627e-06,0.0001078512318038,3.5420647914106706e-06,0.1726442309999996
5.563038462,2.3919129265451496e-06,2.362942959729413e-06,2.60906795168051e-06,2.5205991030084965e-06,0.0001078300724479,3.592975145947558e-06,0.17316346199999977
5.563557692,2.388902111333191e-06,2.3611548320196228e-06,2.613674978215705e-06,2.512853238493776e-06,0.0001079254695528,3.654902479742528e-06,0.17368269199999986
5.564076923,2.3910699472916184e-06,2.355327475399237e-06,2.619583817606768e-06,2.5162418819391253e-06,0.0001082458195171,3.701670117736826e-06,0.17420192300000004
5.564596154,2.394680509877225e-06,2.350680468748353e-06,2.6251780371942667e-06,2.519783730496309e-06,0.0001090001391971,3.716690619320728e-06,0.1747211540000002
5.565115385,2.399393289389184e-06,2.3510775803756064e-06,2.629594125969241e-06,2.5105134159607505e-06,0.0001107203458389,3.701482060417117e-06,0.1752403850000004
5.565634615,2.4019994034072247e-06,2.35406480853273e-06,2.632133714650005e-06,2.5045829106811443e-06,0.0001135883638285,3.679819131443507e-06,0.1757596149999996
5.566153846,2.399315428533775e-06,2.3539895320772896e-06,2.6312603156211075e-06,2.5046020375024458e-06,0.000116595620665,3.687239470522898e-06,0.17627884599999977
5.566673077,2.3977390398265417e-06,2.351517821910666e-06,2.6259179883006825e-06,2.504406846958391e-06,0.000118165973871,3.730946578244287e-06,0.17679807699999994
5.567192308,2.39819994336219e-06,2.346808775428334e-06,2.618684389363029e-06,2.508812595474175e-06,0.0001181011853043,3.781801604736338e-06,0.17731730800000012
5.567711538,2.4003204578100465e-06,2.336802776514972e-06,2.614456520107663e-06,2.513786752881911e-06,0.0001177881535486,3.81571618497688e-06,0.1778365380000002
5.568230769,2.4089811754673607e-06,2.328523875291832e-06,2.613233680995059e-06,2.51488109254478e-06,0.0001179620184157,3.8271191008256255e-06,0.17835576900000039
5.56875,2.424000089234238e-06,2.3290940976711105e-06,2.611522482156518e-06,2.5160843223554726e-06,0.0001178086842668,3.8236301324327616e-06,0.17887499999999967
5.569269231,2.440722851230578e-06,2.330249119860415e-06,2.6062808607638848e-06,2.516341072612156e-06,0.000116733251881,3.826409621368053e-06,0.17939423099999985
5.569788462,2.454060958542236e-06,2.3228758016957537e-06,2.594748072742389e-06,2.51583588612813e-06,0.0001153426750444,3.845895884581449e-06,0.17991346200000002
5.570307692,2.462334020454015e-06,2.312123831196227e-06,2.583109630812926e-06,2.516317776610352e-06,0.0001144109584048,3.870014798059667e-06,0.18043269200000012
5.570826923,2.467608463955152e-06,2.3061110588848093e-06,2.580737706015682e-06,2.5164264118233083e-06,0.0001140719090096,3.890445341240043e-06,0.1809519230000003
5.571346154,2.471491593858512e-06,2.304623875526072e-06,2.5814645652022387e-06,2.516203376107112e-06,0.0001141325787811,3.9151472209307975e-06,0.18147115400000047
5.571865385,2.462807191796107e-06,2.3043995240445085e-06,2.5789175256529056e-06,2.5154867576713588e-06,0.0001144428713251,3.9509819685128215e-06,0.18199038499999975
5.572384615,2.4392444017989874e-06,2.306077811196592e-06,2.5786638206791904e-06,2.519245124174029e-06,0.0001148216062129,3.988090906612867e-06,0.18250961499999985
5.572903846,2.425232709627807e-06,2.3093098214239845e-06,2.575677336614243e-06,2.5322382064168228e-06,0.0001149785740792,4.007407444047262e-06,0.18302884600000002
5.573423077,2.4246099745981747e-06,2.3107117097704254e-06,2.5607664049813125e-06,2.5436186059177997e-06,0.0001147674869493,4.0029007038385736e-06,0.1835480770000002
5.573942308,2.424058281432014e-06,2.310386319419104e-06,2.541166179520288e-06,2.545455625695577e-06,0.000114307462038,3.98902651983963e-06,0.18406730800000037
5.574461538,2.4274794307141565e-06,2.309457881069262e-06,2.5281608090440057e-06,2.545666578229192e-06,0.000113735461533,3.980974555056344e-06,0.18458653800000047
5.574980769,2.4282644321302227e-06,2.3077983052977065e-06,2.52356933146582e-06,2.5437957798649237e-06,0.0001132880445573,3.9808527361949175e-06,0.18510576899999975
5.5755,2.424122273612112e-06,2.305135947989693e-06,2.523468788152551e-06,2.538634563213588e-06,0.0001134499719523,3.985646707274087e-06,0.18562499999999993
5.576019231,2.432584955229249e-06,2.3010133712407352e-06,2.5273369436408844e-06,2.5399885705273382e-06,0.0001142468074503,3.9876819874103645e-06,0.1861442310000001
5.576538462,2.4453769115755734e-06,2.2975142582529963e-06,2.5352527305947225e-06,2.5426337294420414e-06,0.0001149081815101,3.984872134653566e-06,0.18666346200000028
5.577057692,2.449257924256824e-06,2.296271783380951e-06,2.536180829645717e-06,2.5377511128833484e-06,0.0001149559884642,4.001102867601253e-06,0.18718269200000037
5.577576923,2.4521817584029248e-06,2.296274000103096e-06,2.5175024642942297e-06,2.5339772772209e-06,0.0001147607038597,4.049611695699577e-06,0.18770192299999966
5.578096154,2.4566314990852004e-06,2.2980555150849178e-06,2.487582262533493e-06,2.5339874226973767e-06,0.0001147582921744,4.102537702642408e-06,0.18822115399999984
5.578615385,2.474510412444465e-06,2.2999578472759245e-06,2.4650810768140498e-06,2.533025179471888e-06,0.0001149957455891,4.135290691929821e-06,0.188740385
5.579134615,2.51692214225209e-06,2.2976727281280678e-06,2.4518080683349185e-06,2.5311000970045084e-06,0.0001153786160554,4.149052630155282e-06,0.1892596150000001
5.579653846,2.557771876891403e-06,2.293970270988765e-06,2.439518672313639e-06,2.525085803036465e-06,0.0001158107828024,4.153268306995699e-06,0.18977884600000028
5.580173077,2.574016817499386e-06,2.2927055840260403e-06,2.4250224966111423e-06,2.5175729669456808e-06,0.0001160599521362,4.158174788391711e-06,0.19029807700000045
5.580692308,2.5717302353780647e-06,2.29219248251886e-06,2.4089399600797715e-06,2.5146019785170338e-06,0.0001158831462289,4.1722487926546e-06,0.19081730799999974
5.581211538,2.56384815949442e-06,2.2916286487865624e-06,2.392257687446882e-06,2.51421077944699e-06,0.000115488440226,4.196138587687753e-06,0.19133653799999983
5.581730769,2.5608369753754597e-06,2.288379507511474e-06,2.373220112215399e-06,2.5136580165994345e-06,0.0001152653714236,4.218609921308235e-06,0.191855769
5.58225,2.561310055871695e-06,2.2835549305899e-06,2.348921545739024e-06,2.510723282018709e-06,0.0001151966585029,4.226353886928774e-06,0.19237500000000018
5.582769231,2.5586474182675644e-06,2.284643169319429e-06,2.32395004003684e-06,2.5072763950143137e-06,0.0001152034283324,4.215945061207121e-06,0.19289423100000036
5.583288462,2.555045406846136e-06,2.2911779682103025e-06,2.310111197693583e-06,2.508959267152808e-06,0.0001152572864392,4.195498061304772e-06,0.19341346199999965
5.583807692,2.551119895750446e-06,2.2965554710710264e-06,2.3081380025879577e-06,2.5104778206642377e-06,0.0001152028894453,4.176016265466045e-06,0.19393269199999974
5.584326923,2.552150485660801e-06,2.297074807903122e-06,2.308186858801064e-06,2.506664240056722e-06,0.000115207528341,4.161360214197341e-06,0.19445192299999992
5.584846154,2.578558637416218e-06,2.292810996398103e-06,2.309314593719213e-06,2.511005889069739e-06,0.0001154323055214,4.154195030182743e-06,0.1949711540000001
5.585365385,2.631192054956868e-06,2.2871742199156363e-06,2.3154500479686646e-06,2.526019770924381e-06,0.0001156314633923,4.154330553658313e-06,0.19549038500000027
5.585884615,2.6788723056084785e-06,2.283874475861037e-06,2.321425289066525e-06,2.5337810593625278e-06,0.0001157488297191,4.153029885712978e-06,0.19600961500000036
5.586403846,2.702795177679009e-06,2.283504823501253e-06,2.3202236518130684e-06,2.533893218896176e-06,0.0001158898056058,4.150205936880121e-06,0.19652884599999965
5.586923077,2.707283944162652e-06,2.2840123008182696e-06,2.318071809125167e-06,2.5338568433653328e-06,0.0001160413250981,4.1537389804703405e-06,0.19704807699999982
5.587442308,2.704623374114122e-06,2.283803368014975e-06,2.320116706333204e-06,2.5360254152367105e-06,0.0001162697451878,4.159598633476399e-06,0.197567308
5.587961538,2.708731340551206e-06,2.2828606042447235e-06,2.3203842273270766e-06,2.5466561072349485e-06,0.000116505927202,4.158895245602717e-06,0.1980865380000001
5.588480769,2.7152797510268992e-06,2.2817252771833032e-06,2.321200230356466e-06,2.555850169210253e-06,0.0001163706007678,4.153625557806915e-06,0.19860576900000027
5.589,2.716977719067248e-06,2.2817568048307952e-06,2.325534339775881e-06,2.5570384318339044e-06,0.0001158618059652,4.151553423951901e-06,0.19912500000000044
5.589519231,2.7119585110119567e-06,2.284892196071262e-06,2.3270201803414604e-06,2.555077509180172e-06,0.000115565524102,4.1525838276405184e-06,0.19964423099999973
5.590038462,2.68974928343603e-06,2.290987101383778e-06,2.3266848815802237e-06,2.5295308400195065e-06,0.0001156308531713,4.156437954312095e-06,0.2001634619999999
5.590557692,2.663029038742847e-06,2.297058531667019e-06,2.327945769575104e-06,2.477682831389098e-06,0.0001155464548654,4.167003892215669e-06,0.200682692
5.591076923,2.6527946759837827e-06,2.300720390356617e-06,2.3285573097662185e-06,2.445208479377753e-06,0.0001151137287718,4.176106923610056e-06,0.20120192300000017
5.591596154,2.6527681684677324e-06,2.3019697382821465e-06,2.328445014678763e-06,2.4466072535802027e-06,0.0001147048995164,4.172717507709578e-06,0.20172115400000035
5.592115385,2.652562666701454e-06,2.3013385907297785e-06,2.328171235222079e-06,2.452902925573217e-06,0.0001146702531519,4.16140302444487e-06,0.20224038499999963
5.592634615,2.652754589564041e-06,2.2995574666368583e-06,2.326933110567894e-06,2.454125810953926e-06,0.0001148181728013,4.155383689156469e-06,0.20275961499999973
5.593153846,2.656390882435375e-06,2.298767935532724e-06,2.3256055302321207e-06,2.4525014034375365e-06,0.0001144154015938,4.155428061732439e-06,0.2032788459999999
5.593673077,2.658885708642172e-06,2.300147840426227e-06,2.325490181796408e-06,2.4500569758974026e-06,0.0001132606369155,4.156909344284628e-06,0.20379807700000008
5.594192308,2.658659254303861e-06,2.301394970969276e-06,2.328702758175001e-06,2.453340396048005e-06,0.0001124104670531,4.167343085021312e-06,0.20431730800000025
5.594711538,2.65707141181245e-06,2.29773922783082e-06,2.3354311214046893e-06,2.457402741087067e-06,0.0001125794492945,4.186124648760109e-06,0.20483653800000035
5.595230769,2.6566867459416978e-06,2.2895756187459594e-06,2.3398293798384584e-06,2.456564986940684e-06,0.0001130524272627,4.203768291284657e-06,0.20535576899999963
5.59575,2.6607249397080545e-06,2.288071830854954e-06,2.340079596251699e-06,2.462535502060307e-06,0.0001132020620973,4.21994235876695e-06,0.2058749999999998
5.596269231,2.6610988736668198e-06,2.2953067333534923e-06,2.340199362698917e-06,2.4787316945385085e-06,0.0001131867091957,4.233819854990854e-06,0.20639423099999998
5.596788462,2.6665540389478057e-06,2.301300871498168e-06,2.3391999400495084e-06,2.488964366071425e-06,0.0001132022981519,4.241491053243795e-06,0.20691346200000016
5.597307692,2.683150632213241e-06,2.3037228428766127e-06,2.341164150397404e-06,2.4850927197986827e-06,0.000113332044385,4.2443715818825386e-06,0.20743269200000025
5.597826923,2.6901642289261576e-06,2.3060445635623816e-06,2.3435681028769616e-06,2.4714889460158936e-06,0.0001135626757166,4.24562708501077e-06,0.20795192300000043
5.598346154,2.6865453320348577e-06,2.3070882611424434e-06,2.3285347271747045e-06,2.450236499766114e-06,0.0001136961869077,4.245212616101656e-06,0.20847115399999971
5.598865385,2.6717786704716533e-06,2.3005122563043565e-06,2.3044842370923037e-06,2.4179491123504057e-06,0.0001136502245306,4.241840031761179e-06,0.2089903849999999
5.599384615,2.64166010371387e-06,2.2865955651385235e-06,2.2777375010442204e-06,2.3751145859796247e-06,0.0001135629011112,4.237778715202944e-06,0.20950961499999998
5.599903846,2.62583001392891e-06,2.273773533362016e-06,2.2388890689294446e-06,2.33982622658069e-06,0.0001135165586781,4.237413679664903e-06,0.21002884600000016
5.600423077,2.626499522079883e-06,2.26682501345941e-06,2.209646759911545e-06,2.327492719589305e-06,0.0001134997524563,4.23955017626156e-06,0.21054807700000033
5.600942308,2.6155389381970967e-06,2.264384253763493e-06,2.201503669092684e-06,2.3242576401787976e-06,0.0001135040555376,4.239938136795737e-06,0.21106730799999962
5.601461538,2.605992434416417e-06,2.2641360248299465e-06,2.2054699413111466e-06,2.31550617394081e-06,0.0001135119953372,4.240864239292692e-06,0.2115865379999997
5.601980769,2.6060738515893994e-06,2.265516650152573e-06,2.2177681189809395e-06,2.29589490311752e-06,0.000113825257492,4.246607773779317e-06,0.2121057689999999
5.6025,2.6006603554637224e-06,2.2698688745995964e-06,2.221759698901881e-06,2.267546555355777e-06,0.0001150702679135,4.254303625719327e-06,0.21262500000000006
5.603019231,2.6020470349390715e-06,2.280297404359698e-06,2.197997476059728e-06,2.258579176740125e-06,0.0001170097247089,4.259215285071826e-06,0.21314423100000024
5.603538462,2.6056771874578622e-06,2.2974227590844347e-06,2.158495784638912e-06,2.2705963764334487e-06,0.0001182751980073,4.259336857587422e-06,0.21366346200000041
5.604057692,2.592702586311131e-06,2.313454333762383e-06,2.1403417418782607e-06,2.273708216413281e-06,0.0001182809441981,4.255523393622085e-06,0.21418269199999962
5.604576923,2.579624607208793e-06,2.317617008227408e-06,2.1404633923625943e-06,2.2695867848614323e-06,0.0001181182200953,4.253910902908272e-06,0.2147019229999998
5.605096154,2.578418475369602e-06,2.303237718260091e-06,2.125636056181605e-06,2.2689084057082787e-06,0.0001185420674149,4.26333206524129e-06,0.21522115399999997
5.605615385,2.5803722515997016e-06,2.275261739297585e-06,2.1030229936620383e-06,2.271691444319457e-06,0.0001187896120876,4.294585770415687e-06,0.21574038500000015
5.606134615,2.580961935915982e-06,2.2537386316869287e-06,2.0977341408680068e-06,2.276631944700946e-06,0.0001188826059425,4.351564874103292e-06,0.21625961500000024
5.606653846,2.5809865942080404e-06,2.24818984351628e-06,2.1039874787982957e-06,2.277842585431594e-06,0.0001204428131308,4.416089372675504e-06,0.2167788460000004
5.607173077,2.579868796277773e-06,2.2489546899479237e-06,2.106986828880852e-06,2.277037459556208e-06,0.0001233785509119,4.463178603926183e-06,0.2172980769999997
5.607692308,2.577099220311374e-06,2.250620508021328e-06,2.10163983090201e-06,2.277376224831161e-06,0.0001253610667874,4.485626555498957e-06,0.21781730799999988
5.608211538,2.575310945254964e-06,2.253933259382105e-06,2.087491702280761e-06,2.277391019126445e-06,0.0001256744490388,4.49175607396771e-06,0.21833653799999997
5.608730769,2.575753966826751e-06,2.258612156803171e-06,2.075580898577495e-06,2.2771803267827347e-06,0.0001256799303786,4.492087482426509e-06,0.21885576900000014
5.60925,2.5769511358861328e-06,2.2657397096546664e-06,2.073136292826556e-06,2.272194663504528e-06,0.0001259251561811,4.492653214639955e-06,0.21937500000000032
5.609769231,2.5769432682032897e-06,2.278047579206014e-06,2.0734026604938603e-06,2.2564667836810037e-06,0.000126030512166,4.495640216993657e-06,0.2198942309999996
5.610288462,2.582768023890029e-06,2.292764633224207e-06,2.0770923279989743e-06,2.2283369603064757e-06,0.0001260032052046,4.504313593917336e-06,0.22041346199999978
5.610807692,2.6064157550223263e-06,2.299156209449076e-06,2.079816592500261e-06,2.190962703729443e-06,0.000125966573863,4.5290022742352005e-06,0.22093269199999988
5.611326923,2.64096620602428e-06,2.294748902446968e-06,2.071112359321981e-06,2.155456536319996e-06,0.0001259859728674,4.583317489860494e-06,0.22145192300000005
5.611846154,2.6686126447506278e-06,2.287234854456132e-06,2.0616980792321256e-06,2.137209390500598e-06,0.0001261371395537,4.659098597237765e-06,0.22197115400000023
5.612365385,2.684174084823494e-06,2.281663222701071e-06,2.061815690084429e-06,2.13849949444849e-06,0.0001263955329584,4.720791013575585e-06,0.2224903850000004
5.612884615,2.6902082453757987e-06,2.279006104529973e-06,2.064221895930043e-06,2.1650202226704748e-06,0.0001267372402555,4.746662758424063e-06,0.2230096149999996
5.613403846,2.6922091842653336e-06,2.2764443466967787e-06,2.0628298373201832e-06,2.2205007801017312e-06,0.0001271326550242,4.749877691171166e-06,0.22352884599999978
5.613923077,2.6931670135758507e-06,2.268634790509885e-06,2.065195330868644e-06,2.260506270980511e-06,0.0001275070025006,4.74994355260145e-06,0.22404807699999996
5.614442308,2.693453293322906e-06,2.248782929522661e-06,2.077645340682762e-06,2.2618189463950765e-06,0.0001277619305214,4.747745520766642e-06,0.22456730800000013
5.614961538,2.6989935766019286e-06,2.2244263474332173e-06,2.0864772397901737e-06,2.2637037935374523e-06,0.000127828123099,4.740927722952151e-06,0.22508653800000022
5.615480769,2.7067158145327086e-06,2.213328414225242e-06,2.082305920510237e-06,2.2790253585802154e-06,0.0001278295688548,4.740787283269155e-06,0.2256057690000004
5.616,2.710510759184788e-06,2.2133839890250782e-06,2.0797604343535217e-06,2.2859168133000757e-06,0.0001279283049461,4.74945892703252e-06,0.2261249999999997
5.616519231,2.7118850864164507e-06,2.214298069586507e-06,2.0883150811816597e-06,2.285344481839516e-06,0.0001280127976316,4.755470669892252e-06,0.22664423099999986
5.617038462,2.7112816507036675e-06,2.2142428015316432e-06,2.0983789502277657e-06,2.285525591719531e-06,0.0001279887192661,4.765639289273883e-06,0.22716346200000004
5.617557692,2.712840676191713e-06,2.213743537206853e-06,2.1024863757221955e-06,2.2856204442539674e-06,0.0001279624112229,4.791805045730194e-06,0.22768269200000013
5.618076923,2.7156657328462e-06,2.2148119744052608e-06,2.102781835289336e-06,2.288910252480576e-06,0.0001279698311062,4.819316120057762e-06,0.2282019230000003
5.618596154,2.7155492167084616e-06,2.216980813634467e-06,2.102736071259081e-06,2.291872270730061e-06,0.0001279746302998,4.829441899113091e-06,0.2287211539999996
5.619115385,2.71542084497598e-06,2.2174507265020527e-06,2.10287004263181e-06,2.288657959331117e-06,0.0001279822285563,4.8224819354070055e-06,0.22924038499999977
5.619634615,2.7160261138844185e-06,2.217303753857402e-06,2.102747634893523e-06,2.2875812754129814e-06,0.000128107475232,4.80540763182333e-06,0.22975961499999986
5.620153846,2.7231073524586914e-06,2.218494113149407e-06,2.1022141251924987e-06,2.2858744529539942e-06,0.0001283863928374,4.789703219652304e-06,0.23027884600000004
5.620673077,2.7353066607365654e-06,2.217920382460618e-06,2.100704738826181e-06,2.273999534866425e-06,0.000128637146268,4.789945073848143e-06,0.2307980770000002
5.621192308,2.73989423371293e-06,2.21534929415598e-06,2.099785680002436e-06,2.267620122112873e-06,0.0001287915509749,4.797966794136777e-06,0.2313173080000004
5.621711538,2.7371721329073035e-06,2.2164651148000037e-06,2.0996963953270235e-06,2.2750668760999797e-06,0.0001288444147201,4.789867747394286e-06,0.2318365379999996
5.622230769,2.734373249417481e-06,2.218215068189855e-06,2.095757539168112e-06,2.2823304119058124e-06,0.0001286282476762,4.76848926776296e-06,0.23235576899999977
5.62275,2.7371814092053145e-06,2.2128827234682505e-06,2.089156715282739e-06,2.2834462913309425e-06,0.0001281358284975,4.755680542045504e-06,0.23287499999999994
5.623269231,2.741722699152674e-06,2.2059977185262096e-06,2.0853209189567585e-06,2.2792397173196725e-06,0.0001276768643496,4.754006828462236e-06,0.23339423100000012
5.623788462,2.7424545573934047e-06,2.2066859489818423e-06,2.0847087323803746e-06,2.2746554730201824e-06,0.000127518831798,4.754507485372152e-06,0.2339134620000003
5.624307692,2.7424197950597164e-06,2.210688330842104e-06,2.085843302614309e-06,2.2760945008717266e-06,0.0001276018561512,4.7544762306079625e-06,0.2344326920000004
5.624826923,2.7438734464956847e-06,2.2103257372355263e-06,2.084247454605718e-06,2.28153511959575e-06,0.0001276808567113,4.751306309339982e-06,0.23495192299999967
5.625346154,2.7559735549924075e-06,2.206028410670236e-06,2.07745150241556e-06,2.285646353064288e-06,0.0001276599683521,4.747195905369846e-06,0.23547115399999985
5.625865385,2.7741757174633727e-06,2.1995812183469976e-06,2.0775269771342885e-06,2.286097894556846e-06,0.0001276320309408,4.748467110663421e-06,0.23599038500000002
5.626384615,2.7813483989855605e-06,2.1932459522531327e-06,2.092701698977367e-06,2.2848966380700024e-06,0.0001276616640834,4.751134773462633e-06,0.23650961500000012
5.626903846,2.7802090291035164e-06,2.191326335480477e-06,2.112098335629108e-06,2.284452711799678e-06,0.0001277206606234,4.751435112092935e-06,0.2370288460000003
5.627423077,2.778533050126141e-06,2.19133946812028e-06,2.126440052745826e-06,2.2849460535875813e-06,0.0001277714201826,4.75176652643644e-06,0.23754807700000047
5.627942308,2.780252932018514e-06,2.189881318700312e-06,2.1319929758651774e-06,2.2861139160528757e-06,0.0001277858872134,4.751342975345007e-06,0.23806730799999976
5.628461538,2.784298999746812e-06,2.189589534762989e-06,2.1283868437553675e-06,2.295893985184138e-06,0.000127767257193,4.750413014772231e-06,0.23858653799999985
5.628980769,2.7808227161572978e-06,2.188412372495248e-06,2.123825863166798e-06,2.31425631110318e-06,0.0001277574135526,4.750158525063331e-06,0.23910576900000002
5.6295,2.7703013958295164e-06,2.182915024464696e-06,2.123762649859962e-06,2.323368757894232e-06,0.0001277575040766,4.750118480571161e-06,0.2396250000000002
5.630019231,2.7638648962650456e-06,2.1764938291321166e-06,2.124889784999752e-06,2.323126432880469e-06,0.0001277838119814,4.750493549434225e-06,0.24014423100000037
5.630538462,2.763312611005827e-06,2.1714586545677044e-06,2.127239162364041e-06,2.323973461464118e-06,0.0001278777755572,4.753501032346912e-06,0.24066346199999966
5.631057692,2.763402342985648e-06,2.1672871168631234e-06,2.134220898611589e-06,2.322727963478193e-06,0.0001279735066882,4.761271105814655e-06,0.24118269199999975
5.631576923,2.763615233381192e-06,2.1639164150538883e-06,2.1437518489476502e-06,2.32282876903266e-06,0.00012801553539,4.767722049212489e-06,0.24170192299999993
5.632096154,2.763654203376107e-06,2.16127354215769e-06,2.150224828552278e-06,2.3319200772942643e-06,0.0001278950354889,4.765448184867378e-06,0.2422211540000001
5.632615385,2.761687285853595e-06,2.159799036073249e-06,2.151512636068688e-06,2.3397843295079875e-06,0.0001271383531656,4.76477994922059e-06,0.24274038500000028
5.633134615,2.7619964611331982e-06,2.1595167155763864e-06,2.1546457521833306e-06,2.3379203165394174e-06,0.0001255282859051,4.779858115558595e-06,0.24325961500000037
5.633653846,2.763836756440797e-06,2.1598559397367605e-06,2.160399774101907e-06,2.3362257612972204e-06,0.0001239149980636,4.798115333471425e-06,0.24377884599999966
5.634173077,2.764149307693501e-06,2.161363705563573e-06,2.1615092226646703e-06,2.3435446329448583e-06,0.0001232689954687,4.799588429339197e-06,0.24429807699999984
5.634692308,2.77447226161906e-06,2.16255042982124e-06,2.1583570738011034e-06,2.355799712118833e-06,0.0001233154210952,4.7905186471051495e-06,0.244817308
5.635211538,2.7856407089369835e-06,2.1595083806587254e-06,2.146817457393936e-06,2.359187475574556e-06,0.0001232249969476,4.786464076254252e-06,0.2453365380000001
5.635730769,2.774116330016153e-06,2.153638361497549e-06,2.123774673704079e-06,2.347240947374887e-06,0.0001229174905588,4.789464704566155e-06,0.24585576900000028
5.63625,2.7622218146643344e-06,2.150069885612477e-06,2.102219914867906e-06,2.3294951755163727e-06,0.0001227118843978,4.801861440988191e-06,0.24637500000000045
5.636769231,2.7656928196253453e-06,2.149680558324598e-06,2.0963682884129795e-06,2.311501055952249e-06,0.0001226535197063,4.825554922102619e-06,0.24689423099999974
5.637288462,2.763316736253464e-06,2.1502366754174826e-06,2.1086589958111063e-06,2.297257310398996e-06,0.0001227254802294,4.846431292912342e-06,0.24741346199999992
5.637807692,2.767481621356537e-06,2.1502358378382344e-06,2.1265441055958395e-06,2.296353685778764e-06,0.0001230217084631,4.856989677931651e-06,0.247932692
5.638326923,2.786192573829843e-06,2.1523196011431354e-06,2.135222814471663e-06,2.302641397242621e-06,0.0001237436522871,4.866312909111565e-06,0.24845192300000019
5.638846154,2.790224966139801e-06,2.1596291418755434e-06,2.134099317085158e-06,2.3048135993469267e-06,0.0001245596046253,4.892484001529396e-06,0.24897115400000036
5.639365385,2.7771122179136227e-06,2.1687820791348898e-06,2.128130861631061e-06,2.3001109462624857e-06,0.0001248524516238,4.961642953741812e-06,0.24949038499999965
5.639884615,2.765158584167834e-06,2.1725469183049235e-06,2.127420876896652e-06,2.294308958355071e-06,0.0001248202989717,5.05488276539858e-06,0.25000961499999974
5.640403846,2.767502277995333e-06,2.1728011022133872e-06,2.144706722455912e-06,2.3064346552314976e-06,0.0001248163610398,5.107987731612328e-06,0.2505288459999999
5.640923077,2.787241646620228e-06,2.1825302426051835e-06,2.168718575747856e-06,2.3297723569830294e-06,0.0001248240856524,5.112862462312626e-06,0.2510480770000001
5.641442308,2.802550835266165e-06,2.199207927279913e-06,2.180283918944554e-06,2.337845885434176e-06,0.0001248084707521,5.121151088507908e-06,0.25156730800000027
5.641961538,2.804269289338202e-06,2.2061381936117927e-06,2.1825887444922963e-06,2.337713678160763e-06,0.0001248651866375,5.157063589609165e-06,0.25208653800000036
5.642480769,2.8010663406573383e-06,2.20550902548583e-06,2.1806994446585726e-06,2.340324977689532e-06,0.0001252603936906,5.208058369758939e-06,0.25260576899999965
5.643,2.783963670939763e-06,2.2050347881205832e-06,2.1753587235317582e-06,2.340236859547292e-06,0.0001259376030531,5.261839971574475e-06,0.2531249999999998
5.643519231,2.754384531869436e-06,2.196833115105424e-06,2.1793554059269558e-06,2.340106471179901e-06,0.0001263623434905,5.3094928896009645e-06,0.253644231
5.644038462,2.734312299782976e-06,2.183941274729668e-06,2.199895783704035e-06,2.338667770907088e-06,0.0001263078191681,5.336749976543617e-06,0.2541634620000002
5.644557692,2.729587844504341e-06,2.1809107122545364e-06,2.225961265595608e-06,2.334937523312273e-06,0.0001261413899664,5.335273651205269e-06,0.25468269200000027
5.645076923,2.7295985007104613e-06,2.183140230830737e-06,2.248343086135351e-06,2.332975499483282e-06,0.0001261058616903,5.319836757636013e-06,0.25520192300000044
5.645596154,2.7298783150692565e-06,2.182801549462907e-06,2.2735145583066755e-06,2.3309123368177204e-06,0.0001261321791289,5.319559839494679e-06,0.25572115399999973
5.646115385,2.7319141172753453e-06,2.1877681074731887e-06,2.302765513184095e-06,2.325392134753074e-06,0.0001263982960747,5.351425226446891e-06,0.2562403849999999
5.646634615,2.7320852308986203e-06,2.188249167598437e-06,2.3219684257236707e-06,2.3117649354869758e-06,0.0001270678362256,5.399599860194668e-06,0.256759615
5.647153846,2.7287453078471045e-06,2.149989865545499e-06,2.328318812675393e-06,2.2954159765694145e-06,0.0001276405540896,5.430824400239711e-06,0.25727884600000017
5.647673077,2.7271788721415637e-06,2.06773027383305e-06,2.3247120185705747e-06,2.2887714118527845e-06,0.0001276610094386,5.436800550895068e-06,0.25779807700000035
5.648192308,2.7273323430344567e-06,1.9843352178512084e-06,2.3085464791456737e-06,2.288774920550887e-06,0.0001280043946232,5.433457675461389e-06,0.25831730799999963
5.648711538,2.723923340968078e-06,1.939053904457993e-06,2.29293899112961e-06,2.288461324853745e-06,0.0001296643745022,5.431003326248435e-06,0.2588365379999997
5.649230769,2.719002900806975e-06,1.929742914554753e-06,2.2930600268191577e-06,2.288175956457227e-06,0.0001315259049341,5.434821596606612e-06,0.2593557689999999
5.64975,2.718802583572564e-06,1.934600847813949e-06,2.299331410003196e-06,2.2888841970116403e-06,0.0001321110712438,5.455130455001368e-06,0.2598750000000001
5.650269231,2.720348109440623e-06,1.9390773999623112e-06,2.2978746542610185e-06,2.289802716402194e-06,0.0001319782928842,5.49371538230362e-06,0.26039423100000025
5.650788462,2.720470898253872e-06,1.9402379512021976e-06,2.291447568079456e-06,2.2892233268491604e-06,0.0001321908533071,5.525218821063807e-06,0.26091346200000043
5.651307692,2.720343600376382e-06,1.940201368133804e-06,2.2887488559567102e-06,2.2890623546504203e-06,0.0001327493611497,5.5298139786089325e-06,0.26143269199999963
5.651826923,2.721424747641637e-06,1.940180104249796e-06,2.289543865177577e-06,2.2889175233694744e-06,0.0001333913002909,5.534151783371274e-06,0.2619519229999998
5.652346154,2.7293621192221623e-06,1.9401512603059266e-06,2.288077817823018e-06,2.2904742094059963e-06,0.0001341334639787,5.557379833687735e-06,0.262471154
5.652865385,2.728889865827008e-06,1.9401184380793395e-06,2.284708693680675e-06,2.3001438009461988e-06,0.0001349838470415,5.575045487170755e-06,0.26299038500000016
5.653384615,2.707644613538289e-06,1.938461571568001e-06,2.2845249369037275e-06,2.305550349500784e-06,0.0001356153313936,5.576575221940189e-06,0.26350961500000025
5.653903846,2.697445359024652e-06,1.9319813748377265e-06,2.2879276104586926e-06,2.302194407020918e-06,0.0001356977265129,5.573736610981027e-06,0.26402884600000043
5.654423077,2.708140528993908e-06,1.918737307216791e-06,2.287963565507905e-06,2.3050785645486503e-06,0.0001355566459627,5.570788955663681e-06,0.2645480769999997
5.654942308,2.712947671037385e-06,1.901477387792062e-06,2.286213133736107e-06,2.3043046411027247e-06,0.0001355715651481,5.568897144259508e-06,0.2650673079999999
5.655461538,2.712818519404396e-06,1.8887934578933408e-06,2.295997435661034e-06,2.2981840470266567e-06,0.0001355500037837,5.56870007522009e-06,0.265586538
5.655980769,2.718001180870905e-06,1.8882015257798009e-06,2.3032185425485186e-06,2.302385796630307e-06,0.0001354262887714,5.569451926409769e-06,0.26610576900000016
5.6565,2.7206747052413875e-06,1.8975522538738995e-06,2.289354089579424e-06,2.3063057512811637e-06,0.0001353846340061,5.572686504196741e-06,0.26662500000000033
5.657019231,2.719496248115712e-06,1.9067758829129072e-06,2.2802994820887056e-06,2.305857684204003e-06,0.000135389274266,5.580279514543549e-06,0.2671442309999996
5.657538462,2.719041395487572e-06,1.9083830303446906e-06,2.2815665999945657e-06,2.3054338038799477e-06,0.0001353965431875,5.590006991480454e-06,0.2676634619999998
5.658057692,2.717665537301313e-06,1.900980108425376e-06,2.2784842143372538e-06,2.3015834415506287e-06,0.0001354923868194,5.599047658872758e-06,0.2681826919999999
5.658576923,2.7175779841214766e-06,1.892488387052701e-06,2.290035174307752e-06,2.3053246994540627e-06,0.0001356569387105,5.611665488826141e-06,0.26870192300000006
5.659096154,2.7192228456426413e-06,1.898044751604205e-06,2.315390346730475e-06,2.3109642858428155e-06,0.0001357819837492,5.631154457157946e-06,0.26922115400000024
5.659615385,2.718282210988772e-06,1.922336155051638e-06,2.3330586132749997e-06,2.3045110866166217e-06,0.0001358663211582,5.651470779323278e-06,0.2697403850000004
5.660134615,2.720103751400627e-06,1.953987429825773e-06,2.341775068812017e-06,2.3051946180607934e-06,0.0001360076817087,5.663138921022158e-06,0.2702596149999996
5.660653846,2.730123072221265e-06,1.974153553282909e-06,2.348894694891513e-06,2.319293984714734e-06,0.0001363692476767,5.662086611865477e-06,0.2707788459999998
5.661173077,2.7419350395225182e-06,1.9689325523709228e-06,2.355479276747285e-06,2.332344729397927e-06,0.0001371547254502,5.655343571117614e-06,0.27129807699999997
5.661692308,2.747865481040987e-06,1.947500012414124e-06,2.3563678425408454e-06,2.342604582153524e-06,0.0001381766064727,5.652502931237027e-06,0.27181730800000015
5.662211538,2.7482007730833857e-06,1.9308798631764094e-06,2.352808296408112e-06,2.3474920801167182e-06,0.0001387927057389,5.656239714897444e-06,0.27233653800000024
5.662730769,2.749152384570148e-06,1.9251015593119794e-06,2.351083718980761e-06,2.3472677560780137e-06,0.0001388629806567,5.664113556554053e-06,0.2728557690000004
5.66325,2.7542658559678804e-06,1.925053741634756e-06,2.351127933043502e-06,2.348837444827828e-06,0.0001389196193868,5.668487175586585e-06,0.2733749999999997
5.663769231,2.7594247869934694e-06,1.926882901278084e-06,2.3490595732597595e-06,2.354004714292363e-06,0.0001390533736424,5.659173476813739e-06,0.2738942309999999
5.664288462,2.759751491416226e-06,1.9292440561572163e-06,2.34559045500095e-06,2.360549746252223e-06,0.0001389104922489,5.636684178698366e-06,0.27441346200000005
5.664807692,2.758062216918752e-06,1.9300204099225154e-06,2.345035755332601e-06,2.3668561936560918e-06,0.0001386255985717,5.618240151420077e-06,0.27493269200000015
5.665326923,2.758366978560828e-06,1.9262402774224862e-06,2.347871752029336e-06,2.3761716818168653e-06,0.0001385462450936,5.614654091916634e-06,0.2754519230000003
5.665846154,2.758795961916853e-06,1.9222433850640257e-06,2.3551215056191973e-06,2.3956657572807003e-06,0.0001385624755121,5.614769595981591e-06,0.2759711539999996
5.666365385,2.757133529001565e-06,1.922488463025151e-06,2.3676017496346165e-06,2.423265523302531e-06,0.0001383072230845,5.611941973017864e-06,0.2764903849999998
5.666884615,2.7547905855865325e-06,1.9202052723467168e-06,2.378372655829677e-06,2.4384423076547472e-06,0.0001375505430208,5.612863440814804e-06,0.2770096149999999
5.667403846,2.7546911980290428e-06,1.914505794429547e-06,2.3847845591018367e-06,2.4327848196930207e-06,0.0001363938424053,5.6160664572924806e-06,0.27752884600000005
5.667923077,2.755096214075848e-06,1.9112585846667207e-06,2.388661621894205e-06,2.4274518456129306e-06,0.0001352092282734,5.616973124153139e-06,0.2780480770000002
5.668442308,2.752650136054131e-06,1.910651335268605e-06,2.3896939047181006e-06,2.4320566390524973e-06,0.0001344581562258,5.617912498136634e-06,0.2785673080000004
5.668961538,2.750929111926426e-06,1.91013410703864e-06,2.3902044444401035e-06,2.433071054311706e-06,0.0001345317919184,5.617891042424579e-06,0.2790865379999996
5.669480769,2.7530915008977224e-06,1.9094357696203605e-06,2.3899210608442703e-06,2.423425251874645e-06,0.0001352155289042,5.614647443094909e-06,0.2796057689999998
5.67,2.7555447355164926e-06,1.909400185591673e-06,2.387271662719867e-06,2.408186332905562e-06,0.0001356149826185,5.625107928431775e-06,0.28012499999999996
5.670519231,2.7555705245298934e-06,1.9096647843872667e-06,2.38733137041568e-06,2.401769701208262e-06,0.000135065707242,5.675916134721194e-06,0.28064423100000013
5.671038462,2.752770895410357e-06,1.9096892434431936e-06,2.400914338762384e-06,2.405200802849619e-06,0.0001336870951208,5.753690890830202e-06,0.2811634620000003
5.671557692,2.7480396084482468e-06,1.910187534739493e-06,2.429925676224567e-06,2.405549343240768e-06,0.0001320733820882,5.816203367946441e-06,0.2816826920000004
5.672076923,2.7464002974496464e-06,1.9135645779880478e-06,2.4623178626647717e-06,2.405746582611372e-06,0.0001308141126603,5.851714715869086e-06,0.2822019229999997
5.672596154,2.752170057662329e-06,1.919436825111432e-06,2.485758774791793e-06,2.406621120975983e-06,0.0001304024113055,5.874193846031222e-06,0.28272115399999986
5.673115385,2.7629261056765087e-06,1.922250740788265e-06,2.495780874224732e-06,2.406716423533601e-06,0.0001315044164896,5.896069944648564e-06,0.28324038500000004
5.673634615,2.7695657659436463e-06,1.921764996034486e-06,2.495971539025336e-06,2.4147671060672706e-06,0.0001342764621851,5.921735950749973e-06,0.28375961500000013
5.674153846,2.767406202272149e-06,1.9223253569285195e-06,2.494501199853676e-06,2.4276235756237334e-06,0.0001370665012032,5.941401205785669e-06,0.2842788460000003
5.674673077,2.763823277196146e-06,1.9228270993679085e-06,2.495097006970869e-06,2.4329613773829074e-06,0.0001380459434942,5.948093408293292e-06,0.2847980769999996
5.675192308,2.762868184258559e-06,1.922811198172825e-06,2.496314402552961e-06,2.421989420752334e-06,0.0001379664171616,5.948766611283263e-06,0.28531730799999977
5.675711538,2.7620940992628624e-06,1.924529150598209e-06,2.5023615657971607e-06,2.398375363043432e-06,0.0001388850968049,5.948969381014721e-06,0.28583653799999986
5.676230769,2.7576961683236703e-06,1.927460045541207e-06,2.51988673808438e-06,2.3806152911097084e-06,0.0001409770049741,5.952730269449999e-06,0.28635576900000004
5.67675,2.743413794249968e-06,1.9288095982366813e-06,2.5420532892281048e-06,2.3774531685479694e-06,0.0001427420040784,5.957328203609791e-06,0.2868750000000002
5.677269231,2.7263749051903145e-06,1.9263872504036608e-06,2.5575348587678698e-06,2.379752473085042e-06,0.0001433914470601,5.953448068539371e-06,0.2873942310000004
5.677788462,2.718981298005212e-06,1.9205835169494483e-06,2.569814024860847e-06,2.384255514575152e-06,0.0001434288441125,5.955196728731027e-06,0.2879134619999997
5.678307692,2.7161768616943063e-06,1.9120445065784163e-06,2.5895809270551267e-06,2.394219482125279e-06,0.0001434331086276,5.985559751503022e-06,0.28843269199999977
5.678826923,2.714846987514576e-06,1.9029024215255156e-06,2.6213459172471115e-06,2.402396583893115e-06,0.0001434218596276,6.033482262784186e-06,0.28895192299999994
5.679346154,2.7240343919509635e-06,1.898457139235879e-06,2.6531315314414505e-06,2.403072833722292e-06,0.0001435952941493,6.071215672885638e-06,0.2894711540000001
5.679865385,2.734376707003017e-06,1.8990045823902315e-06,2.6687147944550456e-06,2.4010497995001898e-06,0.0001445575096766,6.090875902164751e-06,0.2899903850000003
5.680384615,2.7328603532728994e-06,1.900686223698758e-06,2.6720956530262534e-06,2.3999345571191424e-06,0.0001460001844274,6.10105451929985e-06,0.2905096150000004
5.680903846,2.734201153539749e-06,1.90292116593216e-06,2.6719008093424064e-06,2.3982215502224844e-06,0.0001467129680468,6.10966721617879e-06,0.2910288459999997
5.681423077,2.744859211266473e-06,1.901603033957731e-06,2.6775044831774285e-06,2.3948662963935127e-06,0.000146687204442,6.120477773708669e-06,0.29154807699999985
5.681942308,2.753080903226533e-06,1.8976050010204064e-06,2.7013827633669625e-06,2.393262411154117e-06,0.0001468989488868,6.133206191374532e-06,0.292067308
5.682461538,2.753096820159461e-06,1.8974882999364788e-06,2.726500390025791e-06,2.393563591896876e-06,0.0001472471271409,6.14302649396058e-06,0.2925865380000001
5.682980769,2.7358719374549063e-06,1.895900122504575e-06,2.730429630884154e-06,2.39077832026079e-06,0.0001472827000627,6.148023743991463e-06,0.2931057690000003
5.6835,2.705244092060663e-06,1.891737254236555e-06,2.72728595971464e-06,2.3867780785562834e-06,0.0001473182792291,6.151453205806575e-06,0.29362500000000047
5.684019231,2.690427564020632e-06,1.89160704119776e-06,2.731828492564909e-06,2.3862868775549e-06,0.0001474095635738,6.156108608092045e-06,0.29414423099999976
5.684538462,2.695230696586336e-06,1.8874845946927789e-06,2.738396660385273e-06,2.3857547034012016e-06,0.0001474117199724,6.162624573533767e-06,0.29466346199999993
5.685057692,2.6956165013181694e-06,1.8759608898082505e-06,2.738661894515186e-06,2.387062195773264e-06,0.0001477329925243,6.167763100473142e-06,0.295182692
5.685576923,2.692547432046736e-06,1.8730364745320151e-06,2.7309953008108635e-06,2.3981641138012825e-06,0.0001484051389015,6.16935493795757e-06,0.2957019230000002
5.686096154,2.692946463794863e-06,1.8798841301447296e-06,2.728790067773237e-06,2.403391048442322e-06,0.0001487708014454,6.169231804524635e-06,0.2962211540000004
5.686615385,2.689295174462023e-06,1.8807219350174475e-06,2.7400490564199328e-06,2.386691273656345e-06,0.0001487606250349,6.168303949344658e-06,0.29674038499999966
5.687134615,2.6968355798698204e-06,1.875080790950741e-06,2.755041346211076e-06,2.369854631275476e-06,0.0001488878940407,6.163775480347697e-06,0.29725961499999976
5.687653846,2.7329685969908718e-06,1.8720338849005812e-06,2.765615805344097e-06,2.368279771546226e-06,0.000149221725636,6.147183658629513e-06,0.29777884599999993
5.688173077,2.7714733782703037e-06,1.8711392360380847e-06,2.772015144202701e-06,2.369687415347459e-06,0.0001494997277558,6.113011511222306e-06,0.2982980770000001
5.688692308,2.7841262850818934e-06,1.8713763979173316e-06,2.776873434116741e-06,2.369502042380158e-06,0.0001495689670128,6.070915956008386e-06,0.2988173080000003
5.689211538,2.782220656298592e-06,1.8726287157825864e-06,2.780114155777002e-06,2.3666359305604622e-06,0.0001493506355954,6.035869847040059e-06,0.2993365380000004
5.689730769,2.78054179711344e-06,1.872481883208257e-06,2.7791796388464164e-06,2.361140391747402e-06,0.0001487085512491,6.01258269907001e-06,0.29985576899999966
5.69025,2.7768676609211823e-06,1.8705889856152853e-06,2.7751367993257258e-06,2.3602664248482373e-06,0.0001473477517366,6.0028022346787925e-06,0.30037499999999984
5.690769231,2.7745765168356976e-06,1.8676042396081349e-06,2.7735564648214967e-06,2.362107860985874e-06,0.0001451096082548,6.007506046429864e-06,0.300894231
5.691288462,2.776935994740784e-06,1.867059784186691e-06,2.7747309949227724e-06,2.3621141985541483e-06,0.0001426674260629,6.00932940321077e-06,0.3014134620000002
5.691807692,2.778505314671896e-06,1.867041189049292e-06,2.774732673587076e-06,2.361632080117241e-06,0.0001412312362365,5.989560429670189e-06,0.3019326920000003
5.692326923,2.778028546434817e-06,1.8633187572605308e-06,2.7749148758822367e-06,2.357304488774116e-06,0.0001409377946722,5.959981678544018e-06,0.30245192300000046
5.692846154,2.7764239021008663e-06,1.8616108461566677e-06,2.775098119571845e-06,2.351971238450051e-06,0.0001409931673733,5.941865749923645e-06,0.30297115399999974
5.693365385,2.769852472202202e-06,1.8608716116486537e-06,2.7750573773625066e-06,2.356559327408572e-06,0.0001413015284695,5.941220600624007e-06,0.3034903849999999
5.693884615,2.7565092380180728e-06,1.85228426903216e-06,2.7780435447686374e-06,2.365719797167952e-06,0.0001419599155525,5.9517148317318105e-06,0.304009615
5.694403846,2.7410274213561e-06,1.841244504238143e-06,2.7810491280115447e-06,2.3685099183525707e-06,0.0001424737705038,5.956429153645157e-06,0.3045288460000002
5.694923077,2.729865507345896e-06,1.8372453122449425e-06,2.782746691923268e-06,2.366656024541216e-06,0.0001426181894649,5.945403630221688e-06,0.30504807700000036
5.695442308,2.7287759892642167e-06,1.8386071650019004e-06,2.791555472275067e-06,2.3651730099613088e-06,0.000142627026683,5.92813322738709e-06,0.30556730799999965
5.695961538,2.738469760382621e-06,1.8407100827390243e-06,2.8191459214916326e-06,2.3671547967365213e-06,0.0001426300971898,5.91074813048794e-06,0.30608653799999974
5.696480769,2.752314296472806e-06,1.8416747496432443e-06,2.8698830770318478e-06,2.3724180236759223e-06,0.0001425579143537,5.88608864293633e-06,0.3066057689999999
5.697,2.7646238056233045e-06,1.841857416070951e-06,2.928378707618497e-06,2.3769457996844143e-06,0.0001423093318569,5.8557540192426166e-06,0.3071250000000001
5.697519231,2.7742694197807564e-06,1.8398619018810088e-06,2.9708080850603155e-06,2.3743787839347744e-06,0.0001419397392867,5.831540038816503e-06,0.30764423100000027
5.698038462,2.785738699975597e-06,1.8381348020361224e-06,2.991503987001362e-06,2.3633145286150985e-06,0.0001416727491335,5.816943921012596e-06,0.30816346200000044
5.698557692,2.806184936738479e-06,1.844829603081972e-06,2.9987481541043364e-06,2.361218800290832e-06,0.000141608527995,5.80942421679663e-06,0.30868269199999965
5.699076923,2.825900070492722e-06,1.858144797837884e-06,2.999165454033902e-06,2.3827786144393484e-06,0.0001416089947214,5.8081974705279735e-06,0.3092019229999998
5.699596154,2.8314365508689083e-06,1.8697422400732643e-06,2.999075640324881e-06,2.414346816312483e-06,0.0001416482646289,5.811434879060038e-06,0.309721154
5.700115385,2.8321885627196235e-06,1.8758512101402216e-06,3.00575855359998e-06,2.441851231879958e-06,0.0001419968893166,5.81442482581384e-06,0.3102403850000002
5.700634615,2.8301217586396142e-06,1.877623554406421e-06,3.019080647070591e-06,2.461218150316456e-06,0.0001428952411588,5.813230939383058e-06,0.31075961500000027
5.701153846,2.818127897311908e-06,1.8780289091184165e-06,3.0275976261988047e-06,2.467944565670571e-06,0.0001442526808298,5.811735974426769e-06,0.31127884600000044
5.701673077,2.807151500320397e-06,1.8780216297609696e-06,3.032945588504116e-06,2.4669116117800952e-06,0.00014563106051,5.813900926842086e-06,0.31179807699999973
5.702192308,2.803296010210277e-06,1.8795140094919225e-06,3.096208116452849e-06,2.4670465382891693e-06,0.0001463937200318,5.809613077063602e-06,0.3123173079999999
5.702711538,2.800758357520654e-06,1.8845133400767795e-06,3.4708161332517656e-06,2.4685342517906227e-06,0.000146431296745,5.792208963409237e-06,0.312836538
5.703230769,2.788644815163836e-06,1.8901169869945288e-06,4.416069736371899e-06,2.4700145500524365e-06,0.0001467059593699,5.77387426590934e-06,0.3133557690000002
5.70375,2.7490444215893706e-06,1.8933066152679768e-06,5.633412279472144e-06,2.472760235439024e-06,0.0001478312343627,5.76579027334043e-06,0.31387500000000035
5.704269231,2.687761168502756e-06,1.8950355653168896e-06,6.603019892750146e-06,2.476461166447425e-06,0.0001486998882631,5.765279865395829e-06,0.31439423099999964
5.704788462,2.6438765699429694e-06,1.8961967475029403e-06,7.129831539156423e-06,2.486171003019439e-06,0.0001484934857435,5.765645450622354e-06,0.3149134619999998
5.705307692,2.63408848403373e-06,1.897586752523076e-06,7.328248601652623e-06,2.499958508435352e-06,0.0001483554388625,5.762547750960908e-06,0.3154326919999999
5.705826923,2.639967182263414e-06,1.902037020269672e-06,7.371797932251819e-06,2.5048572142488345e-06,0.0001489318543411,5.752124584296696e-06,0.3159519230000001
5.706346154,2.6497323146719397e-06,1.907545050289776e-06,7.372017521075204e-06,2.504908536221228e-06,0.0001492737549013,5.734593687249642e-06,0.31647115400000025
5.706865385,2.6663859870063376e-06,1.9094013215093115e-06,7.395904327833235e-06,2.506674030353084e-06,0.0001492590885612,5.719009970483914e-06,0.31699038500000043
5.707384615,2.68933312783e-06,1.9094415946489524e-06,7.479461547746556e-06,2.5063835744449127e-06,0.0001497783311198,5.71586635787105e-06,0.31750961499999963
5.707903846,2.7007906899023425e-06,1.908211776374729e-06,7.61289103211462e-06,2.5078954343021903e-06,0.0001509569517994,5.7213014228173724e-06,0.3180288459999998
5.708423077,2.6967157082133957e-06,1.904651470878188e-06,7.763872764583457e-06,2.5122564690188084e-06,0.0001522858314976,5.721101162726633e-06,0.318548077
5.708942308,2.706043299276252e-06,1.902802719238466e-06,7.919687714807348e-06,2.518556229276507e-06,0.0001534632776738,5.717086327636486e-06,0.31906730800000016
5.709461538,2.7367380866821392e-06,1.9050329801156604e-06,8.0902864461087e-06,2.5281703784702737e-06,0.0001542723399462,5.725931622321528e-06,0.31958653800000025
5.709980769,2.752210866036278e-06,1.9107438158416064e-06,8.283542619480537e-06,2.5311793746829863e-06,0.0001546583447805,5.749860223173818e-06,0.32010576900000043
5.7105,2.734382813704211e-06,1.92140067000075e-06,8.485630869970351e-06,2.529245831204864e-06,0.0001548684028677,5.776934002603639e-06,0.3206249999999997
5.711019231,2.712116407377628e-06,1.940438379653989e-06,8.668356351245323e-06,2.53715158650777e-06,0.0001550639817579,5.79916555730784e-06,0.3211442309999999
5.711538462,2.7109577329176704e-06,1.967152832509064e-06,8.811040935835335e-06,2.5487058053396984e-06,0.0001551929688274,5.8099473271812976e-06,0.32166346200000007
5.712057692,2.7235999165242115e-06,1.992598999027712e-06,8.910150828373982e-06,2.5555595897312342e-06,0.000155130831369,5.806307311699043e-06,0.32218269200000016
5.712576923,2.7323436525952063e-06,2.009175928512109e-06,8.97861692409601e-06,2.5582966817949026e-06,0.0001548983255491,5.796353203215182e-06,0.32270192300000033
5.713096154,2.729859138715361e-06,2.01870989123218e-06,9.036952798724216e-06,2.553740932726001e-06,0.0001547194580734,5.788595310393063e-06,0.3232211539999996
5.713615385,2.72371636556195e-06,2.026299006057988e-06,9.102181429400383e-06,2.549776811856135e-06,0.0001546942125191,5.785176326540257e-06,0.3237403849999998
5.714134615,2.722032792306128e-06,2.034141194488948e-06,9.184102629991811e-06,2.551395690178248e-06,0.0001547055769379,5.785611769949188e-06,0.3242596149999999
5.714653846,2.722028687732733e-06,2.0411489274518056e-06,9.272401577263303e-06,2.551423538322564e-06,0.0001546599578616,5.785603664919375e-06,0.32477884600000007
5.715173077,2.721678382112483e-06,2.047018722273582e-06,9.338744931745667e-06,2.550662610173429e-06,0.0001545925404909,5.775119374352197e-06,0.32529807700000024
5.715692308,2.722087238682273e-06,2.0526680683694835e-06,9.374463704298826e-06,2.550997803499776e-06,0.0001545665145414,5.751033711515855e-06,0.3258173080000004
5.716211538,2.7235137296744534e-06,2.055041441455444e-06,9.395563630636975e-06,2.549081986151457e-06,0.0001545728385119,5.725522267379323e-06,0.3263365379999996
5.716730769,2.72666082027877e-06,2.052268970222417e-06,9.414843307589248e-06,2.5424855442181198e-06,0.0001545756110432,5.710629315065692e-06,0.3268557689999998
5.71725,2.7369036667681386e-06,2.053696090717758e-06,9.428962767880647e-06,2.537162352187346e-06,0.0001545379773745,5.706861790947788e-06,0.32737499999999997
5.717769231,2.762897594451195e-06,2.065944369772175e-06,9.4295074861464e-06,2.541196492629203e-06,0.0001543982073746,5.7076553160947175e-06,0.32789423100000015
5.718288462,2.7992247299629567e-06,2.0772786327970538e-06,9.450016591015582e-06,2.54548159119962e-06,0.0001542528632767,5.707886739381052e-06,0.3284134620000003
5.718807692,2.8285569238104378e-06,2.077831291167125e-06,9.538265253024062e-06,2.5398101179004824e-06,0.0001542745399737,5.704238960487778e-06,0.3289326920000004
5.719326923,2.8428762517067222e-06,2.0770565995274214e-06,9.663252084112525e-06,2.5298593787463363e-06,0.0001542844132568,5.694368065636447e-06,0.3294519229999997
5.719846154,2.85002580075176e-06,2.083279308810592e-06,9.75731600249484e-06,2.525233070250768e-06,0.000154048864985,5.680917394064883e-06,0.3299711539999999
5.720365385,2.858407289728682e-06,2.086112643683332e-06,9.80507543788877e-06,2.5251264536219847e-06,0.0001537853434207,5.6678925835290266e-06,0.33049038500000005
5.720884615,2.877993236807074e-06,2.0751452342748967e-06,9.82676063049434e-06,2.513807530651417e-06,0.000153736512792,5.656209911770195e-06,0.33100961500000015
5.721403846,2.914723807518801e-06,2.059073848174666e-06,9.837896703482605e-06,2.4876030154527545e-06,0.0001537746079625,5.645328437288903e-06,0.3315288460000003
5.721923077,2.940674018910179e-06,2.049024509214841e-06,9.845401091874376e-06,2.464296829618378e-06,0.0001537362975867,5.636585362444107e-06,0.3320480769999996
5.722442308,2.9423881769628663e-06,2.0448815312427306e-06,9.851244665220144e-06,2.455751617346479e-06,0.0001535898415198,5.6319723173991176e-06,0.3325673079999998
5.722961538,2.943129479439498e-06,2.044800500910807e-06,9.85967154446371e-06,2.457368854583754e-06,0.0001533159755852,5.6306670322138665e-06,0.3330865379999999
5.723480769,2.94668203976827e-06,2.0528684195686443e-06,9.880884386703334e-06,2.456290832924877e-06,0.0001530956200674,5.630600107051316e-06,0.33360576900000005
5.724,2.9482150034117223e-06,2.0714485082020046e-06,9.916573393378103e-06,2.452647292172562e-06,0.0001531761636415,5.630630761489557e-06,0.3341250000000002
5.724519231,2.9511190369046825e-06,2.0866533925695955e-06,9.960421524609056e-06,2.4524817619681536e-06,0.0001533562177521,5.63308581737945e-06,0.3346442310000004
5.725038462,2.952778374813171e-06,2.090840710654086e-06,1.0003608792913683e-05,2.4512619728915537e-06,0.0001533865728144,5.638638006917778e-06,0.3351634619999997
5.725557692,2.952497786536675e-06,2.0913884361679293e-06,1.0032960711767856e-05,2.451441978074782e-06,0.0001534022723207,5.64155318322369e-06,0.3356826919999998
5.726076923,2.9541946681477337e-06,2.0936036795022377e-06,1.0045111466770877e-05,2.458217968343563e-06,0.0001534428156463,5.641696659865253e-06,0.33620192299999996
5.726596154,2.961205737091182e-06,2.1062667585242003e-06,1.0046649392698002e-05,2.463469717593542e-06,0.0001534330768838,5.641067128800784e-06,0.33672115400000013
5.727115385,2.968335432619862e-06,2.129206272411817e-06,1.004408500748357e-05,2.4638334994390728e-06,0.0001532633980872,5.636335773391674e-06,0.3372403850000003
5.727634615,2.968146264565761e-06,2.142626987736996e-06,1.0042283349072177e-05,2.4632333517276737e-06,0.0001525305682629,5.6301529416966695e-06,0.3377596150000004
5.728153846,2.9634462492736927e-06,2.13349342986515e-06,1.004194821315279e-05,2.455401850629266e-06,0.0001512572106682,5.626897815328067e-06,0.3382788459999997
5.728673077,2.95953595914066e-06,2.110543572451925e-06,1.004227489120182e-05,2.4430647428980995e-06,0.0001503458946604,5.626227565976121e-06,0.33879807699999986
5.729192308,2.9579706607251133e-06,2.0925255483089297e-06,1.00445715708882e-05,2.438023292860796e-06,0.0001502207189942,5.6288959573962726e-06,0.33931730800000004
5.729711538,2.9605532804912245e-06,2.0909420313079755e-06,1.0050783169149548e-05,2.437782079824338e-06,0.0001500970711101,5.632702573595694e-06,0.33983653800000013
5.730230769,2.963451063303233e-06,2.101557897089829e-06,1.0061782783898149e-05,2.4393928432433617e-06,0.000149565338853,5.627649762015023e-06,0.3403557690000003
5.73075,2.961692414776189e-06,2.111949827514969e-06,1.007707857908782e-05,2.4411278837237768e-06,0.000149331963479,5.601580157178275e-06,0.3408749999999996
5.731269231,2.9650765508305794e-06,2.116326914385507e-06,1.0091755574587714e-05,2.43754286398751e-06,0.0001492615540726,5.552943860126458e-06,0.34139423099999977
5.731788462,2.979781199760455e-06,2.118094371641413e-06,1.0098967334929564e-05,2.4358181033296192e-06,0.0001479168702767,5.498377838129722e-06,0.34191346199999995
5.732307692,2.992222464414826e-06,2.122343102372485e-06,1.0099650939657476e-05,2.4383533957247653e-06,0.0001454018910758,5.458427751790764e-06,0.34243269200000004
5.732826923,2.993905143950617e-06,2.139775902157165e-06,1.0099817990426765e-05,2.437004322737554e-06,0.0001437664374911,5.439861602299071e-06,0.3429519230000002
5.733346154,2.9947262265284024e-06,2.1736978631465918e-06,1.010127250279554e-05,2.444929754879404e-06,0.000143599199001,5.43749168197911e-06,0.3434711540000004
5.733865385,3.0018236830378232e-06,2.201583965274768e-06,1.0102840966655452e-05,2.470120840532273e-06,0.0001436098138751,5.442955014159921e-06,0.3439903849999997
5.734384615,3.007747979414988e-06,2.207156861862893e-06,1.010372292052801e-05,2.4844417765576694e-06,0.0001433756531895,5.448492626926582e-06,0.34450961499999977
5.734903846,3.009631137308844e-06,2.1970223538920925e-06,1.0103784195088164e-05,2.4845193539534693e-06,0.0001433028248938,5.449137499841467e-06,0.34502884599999994
5.735423077,3.0059336179208334e-06,2.184004011706052e-06,1.0103341734783176e-05,2.5022077413052025e-06,0.0001433497810203,5.4424374671463404e-06,0.3455480770000001
5.735942308,2.997929355761024e-06,2.185681598421055e-06,1.0103661582438072e-05,2.527635008903256e-06,0.0001433798214574,5.421902835504522e-06,0.3460673080000003
5.736461538,3.0242893856402967e-06,2.2062669025934312e-06,1.0104368526617926e-05,2.535612486892639e-06,0.0001433629949932,5.376066270392349e-06,0.3465865380000004
5.736980769,3.102573032144273e-06,2.2266872678988327e-06,1.0103421640730334e-05,2.5354494858198755e-06,0.0001432185938733,5.312438206901938e-06,0.3471057689999997
5.7375,3.180142149480281e-06,2.234901877126057e-06,1.0102633782652711e-05,2.531962687121165e-06,0.0001429599654886,5.267621448612047e-06,0.34762499999999985
5.738019231,3.2227097778665523e-06,2.236708262272784e-06,1.0105147393384098e-05,2.510771879263002e-06,0.0001426563277313,5.259861704369756e-06,0.348144231
5.738538462,3.24577501674674e-06,2.2398108756884454e-06,1.01103294797692e-05,2.468203228029974e-06,0.0001423226786314,5.265678738040923e-06,0.3486634620000002
5.739057692,3.2699324278234785e-06,2.251453345043996e-06,1.0114263201642674e-05,2.4335176896148068e-06,0.0001419724097956,5.266333950716191e-06,0.3491826920000003
5.739576923,3.2942971351904675e-06,2.2822608951356856e-06,1.0114538372515558e-05,2.4275557763631712e-06,0.0001417113319804,5.265476779330073e-06,0.34970192300000047
5.740096154,3.3027105772186246e-06,2.327609208743588e-06,1.0114272927784e-05,2.425427972804358e-06,0.000141645599854,5.265764142819572e-06,0.35022115399999976
5.740615385,3.297933022411992e-06,2.363070997860158e-06,1.0117369672887111e-05,2.4122689516886123e-06,0.0001416306052936,5.26416371953986e-06,0.35074038499999993
5.741134615,3.2952812549694974e-06,2.3777882372958905e-06,1.0139703433753868e-05,2.403011445974897e-06,0.0001414417999372,5.25559645231499e-06,0.351259615
5.741653846,3.2983236479177667e-06,2.3817338874855203e-06,1.0249460051307292e-05,2.4013180766400826e-06,0.0001411949418919,5.236123951234736e-06,0.3517788460000002
5.742173077,3.306593343223511e-06,2.3832849945664585e-06,1.0518404167107708e-05,2.401139812140244e-06,0.0001410911662473,5.207163338599435e-06,0.3522980770000004
5.742692308,3.3195744200291785e-06,2.3832165276393814e-06,1.086486541521159e-05,2.401064921772268e-06,0.0001410946370063,5.174959918697793e-06,0.35281730799999966
5.743211538,3.328639145990298e-06,2.3811755072897013e-06,1.109843277533528e-05,2.398368646872578e-06,0.0001411322571803,5.150168905851932e-06,0.35333653799999976
5.743730769,3.328483065328038e-06,2.378999755150022e-06,1.1158382973066592e-05,2.395348142712272e-06,0.0001411750435235,5.141254528295165e-06,0.35385576899999993
5.74425,3.344460635521138e-06,2.378477278489964e-06,1.1159176746574353e-05,2.4070085656514107e-06,0.0001411853627529,5.141314668456296e-06,0.3543750000000001
5.744769231,3.3808677918578646e-06,2.378065957444525e-06,1.1223691592325725e-05,2.435596139482079e-06,0.0001410494707468,5.134981437559551e-06,0.3548942310000003
5.745288462,3.396298863178408e-06,2.376331060123641e-06,1.1374365306394783e-05,2.461671881374928e-06,0.0001407301941239,5.1196488135903e-06,0.35541346200000046
5.745807692,3.390610454151752e-06,2.383287690563137e-06,1.1575667397590243e-05,2.4751911248118184e-06,0.0001404585078464,5.105144433904969e-06,0.35593269199999966
5.746326923,3.389240221076484e-06,2.404487532180188e-06,1.180592479204818e-05,2.477865112576754e-06,0.0001403936379528,5.097623486531456e-06,0.35645192299999984
5.746846154,3.408727636349547e-06,2.4263784396066048e-06,1.2063215069165196e-05,2.473022511913616e-06,0.0001404125493476,5.095404179153196e-06,0.356971154
5.747365385,3.4623118420089263e-06,2.439418024526964e-06,1.23188127165428e-05,2.4671017488668824e-06,0.0001404093673031,5.095237868665362e-06,0.3574903850000002
5.747884615,3.505896693053233e-06,2.443479550394433e-06,1.2494499609962072e-05,2.467965685892392e-06,0.0001404049371841,5.095378695682923e-06,0.3580096150000003
5.748403846,3.5110192237871023e-06,2.443702733363423e-06,1.2546478967369096e-05,2.4904389582058222e-06,0.0001403480814818,5.095389432215044e-06,0.35852884600000046
5.748923077,3.511537935960532e-06,2.4723769461364734e-06,1.254648758265848e-05,2.537383278352916e-06,0.0001401432806847,5.095340409662105e-06,0.35904807699999974
5.749442308,3.5184479027028497e-06,2.566952771207035e-06,1.2578050713246344e-05,2.582562912959346e-06,0.0001399354078679,5.095513036531312e-06,0.3595673079999999
5.749961538,3.5238701585052693e-06,2.697032837405867e-06,1.262661999472668e-05,2.6073282807635707e-06,0.0001400071965574,5.097165880758763e-06,0.360086538
5.750480769,3.527424276410397e-06,2.796271396188705e-06,1.2652452145650004e-05,2.620728519226392e-06,0.0001402921532691,5.101383154664906e-06,0.3606057690000002
5.751,3.5574258830759547e-06,2.846830111496925e-06,1.2656096377517414e-05,2.637220688684564e-06,0.0001404529919252,5.103634576702008e-06,0.36112500000000036
5.751519231,3.638224499504912e-06,2.872102623463617e-06,1.2652554319040642e-05,2.660273572264697e-06,0.0001404160244177,5.101323526439163e-06,0.36164423099999965
5.752038462,3.712658768236299e-06,2.8919914077297827e-06,1.2650609818781832e-05,2.6785232593257524e-06,0.0001403563446243,5.104174812987999e-06,0.3621634619999998
5.752557692,3.7343722336121e-06,2.911014113672671e-06,1.2653533914146836e-05,2.6823336419202806e-06,0.0001403494512622,5.118599411749589e-06,0.3626826919999999
5.753076923,3.7331459740179503e-06,2.928412382462545e-06,1.2661481560719487e-05,2.6794483827215684e-06,0.0001403594570318,5.137345179859031e-06,0.3632019230000001
5.753596154,3.7300217405931504e-06,2.945014782606823e-06,1.2673325519920291e-05,2.6717772008731617e-06,0.0001403648945997,5.15194143933601e-06,0.36372115400000027
5.754115385,3.72405872124611e-06,2.9584418096542862e-06,1.2689868578599334e-05,2.6576625214849614e-06,0.0001403648777311,5.159929050585099e-06,0.36424038500000044
5.754634615,3.729709482174383e-06,2.959804341286261e-06,1.2714789878714286e-05,2.6485286919175626e-06,0.000140364667729,5.1623176012012985e-06,0.36475961499999965
5.755153846,3.7585254910347566e-06,2.96282617693255e-06,1.275302301729355e-05,2.646676177253117e-06,0.0001403443980116,5.161830482422489e-06,0.3652788459999998
5.755673077,3.8026007495997488e-06,3.040354207732438e-06,1.2804383828797355e-05,2.646027344964204e-06,0.000140290705724,5.162013322449151e-06,0.365798077
5.756192308,3.840869253141374e-06,3.2636034104731702e-06,1.285537891890641e-05,2.642653878353837e-06,0.0001402789328207,5.1662027030684e-06,0.3663173080000002
5.756711538,3.85739896098258e-06,3.612054251642337e-06,1.2888823385419958e-05,2.633444335680021e-06,0.0001403330783658,5.1781848475567095e-06,0.36683653800000027
5.757230769,3.859599680286854e-06,4.019968180393521e-06,1.2902604681018249e-05,2.6272686238280463e-06,0.0001403670282644,5.196084823161713e-06,0.36735576900000044
5.75775,3.859899672659538e-06,4.442762390166966e-06,1.2906943593747854e-05,2.638261498806416e-06,0.0001403685651238,5.203181716377045e-06,0.36787499999999973
5.758269231,3.865043838804599e-06,4.83841569935457e-06,1.2910227636662148e-05,2.657928099330845e-06,0.000140368539069,5.186710199851953e-06,0.3683942309999999
5.758788462,3.899878079474644e-06,5.14650948232103e-06,1.291857326435638e-05,2.6641871915235067e-06,0.000140360691393,5.160701314967142e-06,0.3689134620000001
5.759307692,3.968052227022128e-06,5.323794135349595e-06,1.2934501813733748e-05,2.656331172658237e-06,0.0001403756359545,5.145491903685249e-06,0.3694326920000002
5.759826923,4.028683737187387e-06,5.384393521855583e-06,1.295111528718114e-05,2.644473085951892e-06,0.0001404473337888,5.147359201384297e-06,0.36995192300000035
5.760346154,4.066399842856031e-06,5.387959112070226e-06,1.296025905501798e-05,2.636545935783179e-06,0.0001404877863585,5.161390219700339e-06,0.37047115399999964
5.760865385,4.100875968780586e-06,5.396401350234592e-06,1.2961419128016604e-05,2.639351228032533e-06,0.0001403377651346,5.171215103719571e-06,0.3709903849999998
5.761384615,4.134028516328319e-06,5.438515522962958e-06,1.2963128989427308e-05,2.6409851199100845e-06,0.0001400645912171,5.161056293300284e-06,0.3715096149999999
5.761903846,4.161921762678938e-06,5.505154912545554e-06,1.2982925357047685e-05,2.639426814562476e-06,0.0001398772813479,5.137523739471593e-06,0.3720288460000001
5.762423077,4.187385086301895e-06,5.5744490355318414e-06,1.3035797594195969e-05,2.647699626396336e-06,0.0001397529511996,5.1271948801803145e-06,0.37254807700000026
5.762942308,4.194025056923912e-06,5.632984279630597e-06,1.311612456739165e-05,2.65474216162386e-06,0.0001394934048859,5.145702586014455e-06,0.37306730800000043
5.763461538,4.177961939878182e-06,5.676405869433436e-06,1.3203418760310587e-05,2.652620221491671e-06,0.0001388602749494,5.18693106886375e-06,0.37358653799999963
5.763980769,4.1637951152619534e-06,5.707505289139999e-06,1.3287095274261425e-05,2.6500925146595943e-06,0.0001381307817321,5.2230929648111335e-06,0.3741057689999998
5.7645,4.162380458212268e-06,5.737828083044556e-06,1.3372860744745815e-05,2.6490180363146733e-06,0.0001378481908323,5.212109719417162e-06,0.374625
5.765019231,4.1731732324316e-06,5.783539555552091e-06,1.346437735767976e-05,2.6456957545033417e-06,0.0001378400548341,5.160858572905562e-06,0.37514423100000016
5.765538462,4.193904901330134e-06,5.850578735553087e-06,1.354531284819905e-05,2.630370329324085e-06,0.0001378252008507,5.128905925465098e-06,0.37566346200000034
5.766057692,4.217876509657181e-06,5.925836163247123e-06,1.3596104668074145e-05,2.608109014717524e-06,0.0001378182907699,5.129158046072823e-06,0.37618269200000043
5.766576923,4.248019296946812e-06,5.998526122054643e-06,1.3624468115279657e-05,2.6021307220023813e-06,0.0001378141198898,5.120800493679326e-06,0.3767019229999997
5.767096154,4.279874848265551e-06,6.075077342665869e-06,1.3659180314008188e-05,2.608631661715669e-06,0.000137743017389,5.086744534846005e-06,0.3772211539999999
5.767615385,4.300004476227612e-06,6.162944742810522e-06,1.3760654757163817e-05,2.610711730343924e-06,0.0001373837186893,5.037622788825942e-06,0.37774038500000007
5.768134615,4.30874515106866e-06,6.261782778445665e-06,1.4033921839979166e-05,2.610455494713256e-06,0.0001367037409763,4.981022295537087e-06,0.37825961500000016
5.768653846,4.309435042101933e-06,6.365837411167955e-06,1.4510747980594427e-05,2.6119982824636765e-06,0.0001360879947212,4.9221703115250194e-06,0.37877884600000034
5.769173077,4.305431252299851e-06,6.463381489426732e-06,1.5068586750594668e-05,2.6140118776604977e-06,0.0001358254606389,4.875203837668581e-06,0.3792980769999996
5.769692308,4.304847182615665e-06,6.541916740262004e-06,1.5566721045559956e-05,2.6140932031172595e-06,0.0001357895752543,4.857654722017544e-06,0.3798173079999998
5.770211538,4.307156655635215e-06,6.594040584795919e-06,1.5954457003884717e-05,2.6178194918824506e-06,0.0001357887417474,4.867249641646276e-06,0.3803365379999999
5.770730769,4.306167851747347e-06,6.617356955871856e-06,1.6224580294033524e-05,2.6314355749521637e-06,0.000135764472858,4.873262476612619e-06,0.38085576900000007
5.77125,4.308186486298869e-06,6.618749665159838e-06,1.636583159034071e-05,2.6446163936805847e-06,0.0001355168333656,4.847705374175319e-06,0.38137500000000024
5.771769231,4.331355617137013e-06,6.61495782776675e-06,1.6397863297951513e-05,2.648333054236761e-06,0.0001348672540049,4.804934147741385e-06,0.3818942310000004
