Time,Rectus Femoris,Vastus Medialis,Vastus Lateralis,Bicep Femoris,Tibialis,Gastrocnemius Medialis,Trimmed Time
5.396884615,8.116653587284356e-06,8.609133774008254e-06,7.3837861521267e-06,1.416899075711419e-05,2.0407250480085427e-05,1.0154684548919138e-05,0.00025961500000004634
5.397403846,8.09275879172452e-06,8.625684190229913e-06,7.382657165960174e-06,1.4161235516743285e-05,2.0372826576880144e-05,1.011695707376257e-05,0.0007788459999993336
5.397923077,8.072342671446496e-06,8.639880943488326e-06,7.379338951858792e-06,1.4154614729633034e-05,2.0320028542322503e-05,1.0076525268906348e-05,0.001298076999999509
5.398442308,8.067473512309406e-06,8.649326709701276e-06,7.373232841933699e-06,1.415289284669084e-05,2.027160413894664e-05,1.003895483482506e-05,0.0018173079999996844
5.398961538,8.068756629691172e-06,8.654654372072591e-06,7.360138872347568e-06,1.4152674398977412e-05,2.028464344622136e-05,1.0010023541970998e-05,0.002336537999999777
5.399480769,8.076438506415764e-06,8.655158084029246e-06,7.335094868657876e-06,1.4148633087501474e-05,2.0371077785220544e-05,9.98863123217998e-06,0.0028557689999999525
5.4,8.085041560687808e-06,8.64748579726072e-06,7.298303383287851e-06,1.4140490335174838e-05,2.045847458745941e-05,9.96719648942894e-06,0.003375000000000128
5.400519231,8.082483007206967e-06,8.628142083916304e-06,7.25543387818072e-06,1.4129630297745206e-05,2.049116600516837e-05,9.939202055715849e-06,0.003894230999999415
5.401038462,8.073811962693635e-06,8.59911614276831e-06,7.210103150431627e-06,1.4115039708204382e-05,2.048828688395618e-05,9.90067763671127e-06,0.0044134619999995905
5.401557692,8.06908103928233e-06,8.567270149808649e-06,7.161519215853099e-06,1.409264638265382e-05,2.0478348268715115e-05,9.848459399889825e-06,0.004932691999999683
5.402076923,8.071782664560512e-06,8.537060766576493e-06,7.110333611500272e-06,1.4055981241227243e-05,2.0469281155495204e-05,9.783014597310104e-06,0.005451922999999859
5.402596154,8.081085798787686e-06,8.50739984320526e-06,7.0670687490020105e-06,1.3999599275239183e-05,2.046998525408364e-05,9.712569083345583e-06,0.005971154000000034
5.403115385,8.09082290038838e-06,8.483155986686133e-06,7.047874496123243e-06,1.3918696203051772e-05,2.048461876665841e-05,9.649571520673284e-06,0.0064903850000002095
5.403634615,8.097699984884066e-06,8.479377746633135e-06,7.053527312554367e-06,1.380508344718651e-05,2.050122418363116e-05,9.60206817382766e-06,0.007009614999999414
5.404153846,8.098594767531462e-06,8.495885489371407e-06,7.066046479300363e-06,1.3651779463104728e-05,2.050368842688863e-05,9.571158186346892e-06,0.007528845999999589
5.404673077,8.089013799101567e-06,8.51519426312099e-06,7.071186828110305e-06,1.3468431050743233e-05,2.048900840228748e-05,9.55404559344426e-06,0.008048076999999765
5.405192308,8.078088794167202e-06,8.528948458634558e-06,7.068652800115741e-06,1.328689852443992e-05,2.0468058307081946e-05,9.545505756702856e-06,0.00856730799999994
5.405711538,8.079349236459603e-06,8.539504456806853e-06,7.0627431867083625e-06,1.313745106231042e-05,2.0451633078950304e-05,9.5403084603737e-06,0.009086538000000033
5.406230769,8.093441389513849e-06,8.547829331447445e-06,7.05585060026404e-06,1.3021774661953551e-05,2.0442775065840977e-05,9.539409743744686e-06,0.009605769000000208
5.40675,8.112681784714654e-06,8.550757337703127e-06,7.048693038583287e-06,1.2919471585020443e-05,2.0440342121693457e-05,9.546546350447691e-06,0.010124999999999496
5.407269231,8.126178198676145e-06,8.546585374058045e-06,7.041047977959506e-06,1.2811179648757907e-05,2.0440867590765923e-05,9.558767293058807e-06,0.010644230999999671
5.407788462,8.128674049131849e-06,8.537810980227562e-06,7.030895831970909e-06,1.269119465770765e-05,2.043945207416816e-05,9.572294542343592e-06,0.011163461999999846
5.408307692,8.128622997336286e-06,8.526808126578789e-06,7.013527540136158e-06,1.256847472829124e-05,2.0427956056996205e-05,9.588882063474175e-06,0.011682691999999939
5.408826923,8.128397926722624e-06,8.51430620996258e-06,6.98533295075441e-06,1.245805892261899e-05,2.038422265385259e-05,9.60923954757544e-06,0.012201923000000114
5.409346154,8.126812218330839e-06,8.493575044044091e-06,6.948067107120137e-06,1.2370578170428251e-05,2.0266994136443145e-05,9.630013166408064e-06,0.012721153999999402
5.409865385,8.133650183334201e-06,8.453494678063242e-06,6.9079173332143015e-06,1.2309238851960226e-05,2.006084901637028e-05,9.646827330664948e-06,0.013240384999999577
5.410384615,8.14421290301174e-06,8.392094362088561e-06,6.872873480845738e-06,1.2272391367064006e-05,1.9845735650173466e-05,9.654534686531285e-06,0.01375961499999967
5.410903846,8.145527326479755e-06,8.317719420836762e-06,6.846300146851966e-06,1.2256713120901717e-05,1.9732178085694212e-05,9.6440590767918e-06,0.014278845999999845
5.411423077,8.139053321377044e-06,8.244539018370524e-06,6.825847313157744e-06,1.2258690892133545e-05,1.971422398858984e-05,9.604968210212806e-06,0.01479807700000002
5.411942308,8.130045910115668e-06,8.183148360988226e-06,6.809737910868146e-06,1.2272291998934588e-05,1.971754412933706e-05,9.535456844748562e-06,0.015317308000000196
5.412461538,8.124235002541307e-06,8.133589012840146e-06,6.797832144218621e-06,1.22878402499223e-05,1.9721218541289435e-05,9.442846122483608e-06,0.0158365379999994
5.412980769,8.124302644828634e-06,8.092412497424025e-06,6.790418463606585e-06,1.2298521271606346e-05,1.9710579898587475e-05,9.334761719090376e-06,0.016355768999999576
5.4135,8.128127580547739e-06,8.06211799941218e-06,6.787408257040881e-06,1.2304646931807969e-05,1.9652488727467e-05,9.21879661727369e-06,0.01687499999999975
5.414019231,8.13753542076874e-06,8.049823093260706e-06,6.790057344221736e-06,1.2308324885543628e-05,1.9569974636392177e-05,9.108470735913824e-06,0.017394230999999927
5.414538462,8.147690269425269e-06,8.055284107541185e-06,6.799735789333154e-06,1.2305608227956647e-05,1.952188211039465e-05,9.01909581667387e-06,0.017913462000000102
5.415057692,8.149227279094056e-06,8.068616657997816e-06,6.811333188772036e-06,1.2282579398092796e-05,1.9519806532985425e-05,8.956210252404275e-06,0.018432692000000195
5.415576923,8.147356542857704e-06,8.081065835002491e-06,6.817984601607194e-06,1.2224455032895283e-05,1.952970729122184e-05,8.91372557841397e-06,0.018951922999999482
5.416096154,8.147471796580655e-06,8.08975191829547e-06,6.819428988560303e-06,1.213122294437606e-05,1.953320857235217e-05,8.882416262627248e-06,0.019471153999999657
5.416615385,8.148265527434765e-06,8.09434665269773e-06,6.819924802823793e-06,1.2017067001387994e-05,1.954196985626897e-05,8.855668928576277e-06,0.019990384999999833
5.417134615,8.151413576817004e-06,8.094993387285595e-06,6.822835587790706e-06,1.1896533659167664e-05,1.9553002521156363e-05,8.828117317496642e-06,0.020509614999999926
5.417653846,8.151013558316086e-06,8.093440892894771e-06,6.827325299570736e-06,1.17768644127985e-05,1.9531066884666503e-05,8.798610850530297e-06,0.0210288460000001
5.418173077,8.144590266120214e-06,8.092311885424145e-06,6.830985218630379e-06,1.165988181714822e-05,1.945479237945327e-05,8.773299363180807e-06,0.021548076999999388
5.418692308,8.14201763689796e-06,8.09220298138609e-06,6.833021517021402e-06,1.15457824551336e-05,1.9357248077979266e-05,8.756232380172436e-06,0.022067307999999564
5.419211538,8.141808896507534e-06,8.092673617316657e-06,6.833151942283455e-06,1.143505289830982e-05,1.9293901645082848e-05,8.744023388178699e-06,0.022586537999999656
5.419730769,8.132114272218757e-06,8.09344518623657e-06,6.830445837346235e-06,1.133029567592376e-05,1.927997284750684e-05,8.732938921443106e-06,0.02310576899999983
5.42025,8.115404380024279e-06,8.092382429057194e-06,6.822914684024855e-06,1.1236978678568322e-05,1.928021230847401e-05,8.725431493405541e-06,0.023625000000000007
5.420769231,8.104765112320011e-06,8.087086343946437e-06,6.809102216684854e-06,1.1159572438043806e-05,1.9250717079371407e-05,8.726180151165132e-06,0.024144231000000183
5.421288462,8.101298560434226e-06,8.07835042888953e-06,6.789842080262792e-06,1.1095977931566189e-05,1.917980756558114e-05,8.734320767954868e-06,0.02466346199999947
5.421807692,8.101905773256786e-06,8.067364467694913e-06,6.7676386595475e-06,1.103740447954047e-05,1.909188376804586e-05,8.744536269776183e-06,0.025182691999999562
5.422326923,8.108004050385808e-06,8.051087979185228e-06,6.74556341751444e-06,1.0975738243578848e-05,1.9022880269930422e-05,8.752800496967837e-06,0.025701922999999738
5.422846154,8.114501726661894e-06,8.021454304695329e-06,6.725405412273002e-06,1.0911884841585666e-05,1.89907386299478e-05,8.76024477871631e-06,0.026221153999999913
5.423365385,8.116107186799988e-06,7.965619906421792e-06,6.707662393050119e-06,1.08552193815522e-05,1.898331958600624e-05,8.766634907801903e-06,0.02674038500000009
5.423884615,8.115223920337902e-06,7.874210858414855e-06,6.6946892839824776e-06,1.0814286965311296e-05,1.898288550662043e-05,8.769802198215262e-06,0.02725961500000018
5.424403846,8.115601076155994e-06,7.757601360161888e-06,6.689562931342351e-06,1.079134841489491e-05,1.898405531661221e-05,8.776276252768233e-06,0.02777884599999947
5.424923077,8.119642649964136e-06,7.643679925291533e-06,6.691540638705125e-06,1.0783624680188087e-05,1.8984141560270924e-05,8.790722942536863e-06,0.028298076999999644
5.425442308,8.125055395611014e-06,7.552945712958265e-06,6.696929542129119e-06,1.0781155457588196e-05,1.898494292855324e-05,8.805841757136241e-06,0.02881730799999982
5.425961538,8.125233653394763e-06,7.481781613182059e-06,6.702855604229326e-06,1.0771477084092984e-05,1.8989766135076208e-05,8.814991450245215e-06,0.029336537999999912
5.426480769,8.123322556276136e-06,7.4117868273548e-06,6.708645893619913e-06,1.0754471077902471e-05,1.8994933488364276e-05,8.823674714617309e-06,0.029855769000000087
5.427,8.124849953414864e-06,7.329918250135974e-06,6.714999231494406e-06,1.0737771332829963e-05,1.8996340981735312e-05,8.843465350172731e-06,0.030374999999999375
5.427519231,8.12706514328088e-06,7.237313569603207e-06,6.718784103723822e-06,1.072444349279756e-05,1.8990831832811155e-05,8.87647033014018e-06,0.03089423099999955
5.428038462,8.125512323571148e-06,7.146412583983014e-06,6.714486495336006e-06,1.0717980472658869e-05,1.8982735650792126e-05,8.913052289830122e-06,0.031413461999999726
5.428557692,8.109479993449116e-06,7.064112770476252e-06,6.703390727420435e-06,1.0719523077797882e-05,1.898206724659072e-05,8.943319760410101e-06,0.03193269199999982
5.429076923,8.076753159655707e-06,6.985157432031831e-06,6.690525426160312e-06,1.0722795025083273e-05,1.898618637810364e-05,8.964523918293846e-06,0.032451922999999994
5.429596154,8.045842097809656e-06,6.912990601784015e-06,6.67934148174669e-06,1.0723259565001256e-05,1.8988510951951896e-05,8.978396257565553e-06,0.03297115400000017
5.430115385,8.028303302752658e-06,6.856535848622826e-06,6.674322406350282e-06,1.072028118227612e-05,1.898816625674394e-05,8.988312089310982e-06,0.033490384999999456
5.430634615,8.018970750484153e-06,6.81606263645326e-06,6.674234335223076e-06,1.0712450177591158e-05,1.8982023048314392e-05,9.00043601153658e-06,0.03400961499999955
5.431153846,8.008495854583644e-06,6.7907748245430654e-06,6.674221271219103e-06,1.069564129201326e-05,1.8973972636528236e-05,9.022663357394142e-06,0.034528845999999724
5.431673077,7.991282806755985e-06,6.777209728916439e-06,6.676102120081814e-06,1.0664555661501244e-05,1.8972797599305345e-05,9.056138511690146e-06,0.0350480769999999
5.432192308,7.97432241105185e-06,6.768597749354123e-06,6.681880078012529e-06,1.061805802906215e-05,1.8976565652062617e-05,9.090122517821071e-06,0.035567308000000075
5.432711538,7.966949125810131e-06,6.763875089709944e-06,6.6895093174684345e-06,1.0560740982948926e-05,1.898193140711179e-05,9.113484601855952e-06,0.03608653800000017
5.433230769,7.968288453915622e-06,6.764411256315481e-06,6.694456069125531e-06,1.049824022470392e-05,1.8988874311010084e-05,9.125385127230132e-06,0.036605768999999455
5.43375,7.977770766492072e-06,6.762837598622032e-06,6.696219542896658e-06,1.043323387858202e-05,1.8994047191822368e-05,9.130739000608448e-06,0.03712499999999963
5.434269231,7.993999216429851e-06,6.746846787515638e-06,6.6976287163003405e-06,1.0366220368981405e-05,1.899592876809589e-05,9.132419289632484e-06,0.037644230999999806
5.434788462,8.007283890219207e-06,6.711655095348401e-06,6.693131376285433e-06,1.0297478266038369e-05,1.8996401450013768e-05,9.130271783430833e-06,0.03816346199999998
5.435307692,8.013797912880412e-06,6.657298503968679e-06,6.680047786588747e-06,1.0226728006551667e-05,1.8996798808340247e-05,9.125058521215048e-06,0.038682692000000074
5.435826923,8.018657632334069e-06,6.580048509212282e-06,6.665498570595896e-06,1.0153457181596408e-05,1.899979951803692e-05,9.121123111631993e-06,0.03920192299999936
5.436346154,8.026396992627827e-06,6.477179188606762e-06,6.649848318296438e-06,1.007978450162902e-05,1.9005904049378173e-05,9.122103898211108e-06,0.03972115399999954
5.436865385,8.039958453517253e-06,6.3597738436713504e-06,6.6216101483021504e-06,1.0013726718356342e-05,1.900628968198645e-05,9.12805535595317e-06,0.04024038499999971
5.437384615,8.053693698254202e-06,6.246507760753184e-06,6.570476846397019e-06,9.967519625959333e-06,1.899691787193948e-05,9.139668577800627e-06,0.040759614999999805
5.437903846,8.05784724376008e-06,6.1457718124525285e-06,6.5103169636622535e-06,9.947092258464086e-06,1.898560214085566e-05,9.160535169875252e-06,0.04127884599999998
5.438423077,8.055752816271959e-06,6.056316551879946e-06,6.468838807232692e-06,9.944168024234215e-06,1.897548515954737e-05,9.197300544949744e-06,0.041798077000000156
5.438942308,8.05460010946866e-06,5.974942472346664e-06,6.451651720994886e-06,9.943654712403396e-06,1.896505609068617e-05,9.25716583474891e-06,0.04231730799999944
5.439461538,8.056479960186838e-06,5.903669364569791e-06,6.447125135666892e-06,9.935575436735776e-06,1.8952312096672468e-05,9.341235229264948e-06,0.042836537999999535
5.439980769,8.061953811872027e-06,5.852280604140117e-06,6.447055524892781e-06,9.91561210071631e-06,1.89381113892883e-05,9.44059548241583e-06,0.04335576899999971
5.4405,8.065808168121476e-06,5.826609855630273e-06,6.445995043474368e-06,9.881075960091706e-06,1.893020631894159e-05,9.541530592642386e-06,0.043874999999999886
5.441019231,8.06591940258969e-06,5.821879366117042e-06,6.4323178045111226e-06,9.831914905524707e-06,1.892937335026812e-05,9.635407443467784e-06,0.04439423100000006
5.441538462,8.065886794512458e-06,5.826498007788165e-06,6.400996342211807e-06,9.776427445968932e-06,1.8929109925986317e-05,9.722805403115024e-06,0.04491346199999935
5.442057692,8.065581146269662e-06,5.829779069911956e-06,6.367293010878605e-06,9.728970301150991e-06,1.8929024210850102e-05,9.809116234282814e-06,0.04543269199999944
5.442576923,8.065076917300655e-06,5.8274800215910265e-06,6.343434309757827e-06,9.696589198964371e-06,1.8930321737425916e-05,9.897588619694092e-06,0.04595192299999962
5.443096154,8.065097393594784e-06,5.819373420073352e-06,6.326736179215114e-06,9.680373740273064e-06,1.893084327718416e-05,9.9838001190424e-06,0.04647115399999979
5.443615385,8.065291999664162e-06,5.810790105849417e-06,6.313803242261054e-06,9.679479613728654e-06,1.8930788368731815e-05,1.0057693785831504e-05,0.04699038499999997
5.444134615,8.069223182652577e-06,5.809166395587082e-06,6.306850356890712e-06,9.683337369561776e-06,1.893122458121886e-05,1.0113908990189932e-05,0.04750961500000006
5.444653846,8.078749433844628e-06,5.8129853325333926e-06,6.307326487998537e-06,9.682017091301488e-06,1.892989523016403e-05,1.0156144646108932e-05,0.04802884599999935
5.445173077,8.087846732448051e-06,5.816898885692617e-06,6.310075382156858e-06,9.677012713690336e-06,1.8925093314074223e-05,1.019166969522508e-05,0.04854807699999952
5.445692308,8.092102521091503e-06,5.8227154701943184e-06,6.3107831128936e-06,9.670433525868023e-06,1.891841185850748e-05,1.0225318791525524e-05,0.0490673079999997
5.446211538,8.089907535813941e-06,5.834852606993067e-06,6.308484230693965e-06,9.664338497239367e-06,1.8911752854129385e-05,1.0257055891362404e-05,0.04958653799999979
5.446730769,8.07897426600641e-06,5.85113928316915e-06,6.300608207753087e-06,9.661068449930236e-06,1.8905018911941524e-05,1.0283578087788298e-05,0.05010576899999997
5.44725,8.064533711415714e-06,5.86374369746114e-06,6.284426646587399e-06,9.653591178799494e-06,1.8896890330606183e-05,1.0303484174353863e-05,0.05062500000000014
5.447769231,8.050628487157612e-06,5.866106674155721e-06,6.263686145373096e-06,9.63939677866743e-06,1.8889553482194648e-05,1.0319642984221577e-05,0.05114423099999943
5.448288462,8.03585320721828e-06,5.8556879201747005e-06,6.248413150065154e-06,9.63199840788194e-06,1.88885877622468e-05,1.0335675234899114e-05,0.051663461999999605
5.448807692,8.02088625895208e-06,5.835949894129717e-06,6.242965420394838e-06,9.642008704277084e-06,1.8890498821220644e-05,1.0351767693013624e-05,0.0521826919999997
5.449326923,7.997263299872285e-06,5.814410738421531e-06,6.242749245786624e-06,9.665311226790231e-06,1.8887529553531617e-05,1.0363792267026077e-05,0.05270192299999987
5.449846154,7.955403354814217e-06,5.793286604161924e-06,6.244074934025881e-06,9.690901222487468e-06,1.8880729509071704e-05,1.0368797337979509e-05,0.05322115400000005
5.450365385,7.90271053898383e-06,5.769485022000884e-06,6.244947034204334e-06,9.711923026558095e-06,1.8873931584776355e-05,1.0370306467163535e-05,0.053740384999999335
5.450884615,7.848773994626246e-06,5.742746553753114e-06,6.243026426949214e-06,9.730924630527348e-06,1.8871300027281373e-05,1.0373641911507315e-05,0.05425961499999943
5.451403846,7.7933377480198e-06,5.718523076627315e-06,6.240826071295761e-06,9.754940277398293e-06,1.887369943898167e-05,1.03814748082101e-05,0.054778845999999604
5.451923077,7.730467441521366e-06,5.703410190673051e-06,6.241904349618276e-06,9.787627756723646e-06,1.8874766495917436e-05,1.0393455212775837e-05,0.05529807699999978
5.452442308,7.646347317303548e-06,5.697822654886922e-06,6.244956239543504e-06,9.826215917488875e-06,1.8872521713206824e-05,1.0406479933794094e-05,0.055817307999999954
5.452961538,7.532556288086851e-06,5.697254438845861e-06,6.2481554294624e-06,9.86396807539589e-06,1.8871733952839463e-05,1.0416703840015008e-05,0.05633653800000005
5.453480769,7.4038030121855075e-06,5.698366380409116e-06,6.251787751981137e-06,9.893865929252627e-06,1.887519418262963e-05,1.0421159251488364e-05,0.056855768999999334
5.454,7.284799513742481e-06,5.7001614906284586e-06,6.256266391873513e-06,9.910132399592288e-06,1.8886431572353892e-05,1.0421406556005828e-05,0.05737499999999951
5.454519231,7.192200639880409e-06,5.704021175828382e-06,6.261198857314995e-06,9.912577424447987e-06,1.89142652291882e-05,1.0422681701854084e-05,0.057894230999999685
5.455038462,7.1305274454348685e-06,5.713990476754195e-06,6.266230295557918e-06,9.909567406353223e-06,1.8968037136978468e-05,1.0428711158387976e-05,0.05841346199999986
5.455557692,7.094711973851205e-06,5.735053454716782e-06,6.271527617932007e-06,9.909120606558084e-06,1.9047717561283164e-05,1.0439627681915876e-05,0.05893269199999995
5.456076923,7.075272979187123e-06,5.770562310063947e-06,6.276334587628071e-06,9.91074490191286e-06,1.9139003998297195e-05,1.045343093376718e-05,0.05945192300000013
5.456596154,7.064185824939748e-06,5.822320376686939e-06,6.279780666403475e-06,9.911137216898756e-06,1.922569638691038e-05,1.046990702010455e-05,0.059971153999999416
5.457115385,7.0602115817260844e-06,5.891022150518144e-06,6.282408717984388e-06,9.909849192030487e-06,1.930242719354774e-05,1.04915308903086e-05,0.06049038499999959
5.457634615,7.061773448843181e-06,5.971147677378864e-06,6.284467349315708e-06,9.908067566043849e-06,1.9366629139816267e-05,1.0519271638908871e-05,0.061009614999999684
5.458153846,7.059059797201045e-06,6.046920460753481e-06,6.284987024444289e-06,9.907108720807271e-06,1.941090470500223e-05,1.0548719705411617e-05,0.06152884599999986
5.458673077,7.046100782515364e-06,6.10347857138114e-06,6.28386545315101e-06,9.90757271090021e-06,1.943097044196559e-05,1.05751527211701e-05,0.062048077000000035
5.459192308,7.029973445153405e-06,6.141658451301329e-06,6.283082924344766e-06,9.909692903193404e-06,1.9433544664259585e-05,1.0599093735320676e-05,0.06256730800000021
5.459711538,7.018090720926365e-06,6.171922831800817e-06,6.283790090337791e-06,9.914312464469618e-06,1.94356048825846e-05,1.062382425028308e-05,0.06308653799999941
5.460230769,7.010666756561575e-06,6.201139185566583e-06,6.28354027216884e-06,9.92158605749602e-06,1.9449225595798976e-05,1.0652096505525683e-05,0.06360576899999959
5.46075,7.000798127332847e-06,6.2293571478591325e-06,6.280158052342741e-06,9.929155397702689e-06,1.946644833733488e-05,1.0685238833497696e-05,0.06412499999999977
5.461269231,6.979912246106366e-06,6.251041623235496e-06,6.275954804769399e-06,9.93403904020361e-06,1.9475028959598465e-05,1.0723859680772764e-05,0.06464423099999994
5.461788462,6.950939613071578e-06,6.261881130940464e-06,6.273985923334584e-06,9.936469032428954e-06,1.947866690991454e-05,1.0771300974155404e-05,0.06516346200000012
5.462307692,6.921124734165426e-06,6.260743482322241e-06,6.2736480493163216e-06,9.938955452104984e-06,1.950770545480145e-05,1.082557991880528e-05,0.06568269200000021
5.462826923,6.88859345544185e-06,6.246262192639217e-06,6.272735394826952e-06,9.94372203167764e-06,1.9628922191191343e-05,1.0868547684084208e-05,0.0662019229999995
5.463346154,6.8480227305490506e-06,6.2203290197417305e-06,6.270016026670181e-06,9.953101954014077e-06,1.9879502227954175e-05,1.0886961452757483e-05,0.06672115399999967
5.463865385,6.803869624629447e-06,6.187865081667075e-06,6.264093703841405e-06,9.966177446982524e-06,2.018511122993487e-05,1.0892787372272472e-05,0.06724038499999985
5.464384615,6.762793477447354e-06,6.151532432145812e-06,6.255006554376511e-06,9.978383263338533e-06,2.0427346708547796e-05,1.0909797822060971e-05,0.06775961499999994
5.464903846,6.714049708931093e-06,6.113949604558192e-06,6.246668513826625e-06,9.988199707534508e-06,2.0550739464803952e-05,1.0950963506297682e-05,0.06827884600000012
5.465423077,6.636617548469851e-06,6.079721854970393e-06,6.242491417607453e-06,9.997986924443436e-06,2.05737528995102e-05,1.1007897138571704e-05,0.0687980769999994
5.465942308,6.515513128372123e-06,6.0502353207958725e-06,6.241607303689695e-06,1.0009590342071736e-05,2.0563492530500152e-05,1.106264002677748e-05,0.06931730799999958
5.466461538,6.369916779465167e-06,6.02708243265297e-06,6.245155510246608e-06,1.0021638690435186e-05,2.0568995866701088e-05,1.1106309471914632e-05,0.06983653799999967
5.466980769,6.252082788136947e-06,6.015313469180816e-06,6.256264516746964e-06,1.0029249396928207e-05,2.058027590014651e-05,1.1140080342760677e-05,0.07035576899999985
5.4675,6.181634440652047e-06,6.012344566707412e-06,6.269882585415556e-06,1.0026862301344007e-05,2.058568758091112e-05,1.116618713997078e-05,0.07087500000000002
5.468019231,6.133506881801639e-06,6.010681346281655e-06,6.2773529713753694e-06,1.0012335001927272e-05,2.0589165245924023e-05,1.1184289816694918e-05,0.0713942310000002
5.468538462,6.080822710220168e-06,6.010874837723328e-06,6.276508802173692e-06,9.987537645730948e-06,2.058502765260732e-05,1.119405711221558e-05,0.07191346199999948
5.469057692,6.010313848440676e-06,6.014333278719854e-06,6.267887035652338e-06,9.95555357897408e-06,2.057448200872061e-05,1.1197567980905826e-05,0.07243269199999958
5.469576923,5.9351875095892425e-06,6.016890093737308e-06,6.25044604900646e-06,9.919429335272254e-06,2.056946876216172e-05,1.1199033720070548e-05,0.07295192299999975
5.470096154,5.879921374634979e-06,6.016773802564926e-06,6.219315757033868e-06,9.88243531197308e-06,2.05696273436204e-05,1.1202745309810164e-05,0.07347115399999993
5.470615385,5.844822701588937e-06,6.016504482733873e-06,6.161519421012004e-06,9.846517455366242e-06,2.05612305826967e-05,1.1208135810104031e-05,0.0739903850000001
5.471134615,5.818106861320804e-06,6.01704793276419e-06,6.068513888685788e-06,9.812277328904589e-06,2.053572260620522e-05,1.1208338135183172e-05,0.0745096150000002
5.471653846,5.793985829895163e-06,6.016894631724987e-06,5.950952282102968e-06,9.780362445979664e-06,2.0495685960870065e-05,1.1196682261672914e-05,0.07502884599999948
5.472173077,5.77036399557545e-06,6.018463467214204e-06,5.827526326186626e-06,9.752905817021784e-06,2.044238791487904e-05,1.1173993576526204e-05,0.07554807699999966
5.472692308,5.75000811074198e-06,6.02610582466847e-06,5.708802545625371e-06,9.737854665247798e-06,2.0367133286937704e-05,1.1148429893000911e-05,0.07606730799999983
5.473211538,5.735785835657677e-06,6.037184806851956e-06,5.597642822092962e-06,9.739980592930266e-06,2.0255517988885944e-05,1.1127182836519391e-05,0.07658653799999993
5.473730769,5.726893870973456e-06,6.042502845670978e-06,5.496720708270562e-06,9.749582824979375e-06,2.0091311008355667e-05,1.1111711758928504e-05,0.0771057690000001
5.47425,5.721390220458393e-06,6.033458955535686e-06,5.410984498485648e-06,9.755523207542216e-06,1.9854850035883845e-05,1.1101720903670715e-05,0.07762499999999939
5.474769231,5.716602050483244e-06,6.0099044689204575e-06,5.343995765185205e-06,9.757002954520571e-06,1.9552429978410477e-05,1.1098245914971296e-05,0.07814423099999956
5.475288462,5.711825004896691e-06,5.979131138732956e-06,5.294577465018603e-06,9.757602874748226e-06,1.93006888744548e-05,1.1101541163854838e-05,0.07866346199999974
5.475807692,5.711768589120839e-06,5.945054329126677e-06,5.258897790643394e-06,9.75631220379129e-06,1.9251210069056645e-05,1.110806749115027e-05,0.07918269199999983
5.476326923,5.718480512753656e-06,5.905193773682981e-06,5.23385692610091e-06,9.750093402887195e-06,1.918418984951781e-05,1.11127868164427e-05,0.07970192300000001
5.476846154,5.725542707558326e-06,5.857304167253522e-06,5.215708621781357e-06,9.741566446934502e-06,1.863835446036135e-05,1.1113971384899296e-05,0.08022115400000018
5.477365385,5.725332439926298e-06,5.808806546586354e-06,5.201035515502274e-06,9.734990246999398e-06,1.7888086162509096e-05,1.1112217321248333e-05,0.08074038499999947
5.477884615,5.712053706633182e-06,5.780954808530379e-06,5.18887371054792e-06,9.7301867485504e-06,1.7685406138770443e-05,1.110544845877584e-05,0.08125961499999956
5.478403846,5.692865835921756e-06,5.79616478550867e-06,5.179419858983128e-06,9.723470936535048e-06,1.7631443178340124e-05,1.1085680374384166e-05,0.08177884599999974
5.478923077,5.683677336368752e-06,5.863130595176011e-06,5.177896603103779e-06,9.708951434276717e-06,1.6907156896577093e-05,1.1041433730897946e-05,0.08229807699999991
5.479442308,5.6829658471313815e-06,5.97006291579355e-06,5.186010724693237e-06,9.681716401756353e-06,1.59749726746768e-05,1.0966767447437183e-05,0.08281730800000009
5.479961538,5.680809649199073e-06,6.085746296943624e-06,5.192890038467523e-06,9.642845389105924e-06,1.5625891556567194e-05,1.0870954208028807e-05,0.08333653800000018
5.480480769,5.656925944494267e-06,6.184526235322766e-06,5.186403773359196e-06,9.597932433834918e-06,1.5648959259208196e-05,1.0775038254502326e-05,0.08385576899999947
5.481,5.5913572664490665e-06,6.268848762601706e-06,5.153029285119625e-06,9.551559178009298e-06,1.5654309606678873e-05,1.0695432332279792e-05,0.08437499999999964
5.481519231,5.521989616760194e-06,6.358395181232595e-06,5.086542767096506e-06,9.50690100407392e-06,1.5643248315796754e-05,1.0634866138766308e-05,0.08489423099999982
5.482038462,5.494423225749615e-06,6.465813427120123e-06,5.004215584928348e-06,9.46821231062122e-06,1.5652228393398197e-05,1.0586791761374949e-05,0.085413462
5.482557692,5.491278812180953e-06,6.581004178552463e-06,4.92859168775988e-06,9.439775501052298e-06,1.5658880662805052e-05,1.054254643452205e-05,0.08593269200000009
5.483076923,5.492024039911526e-06,6.682098305921807e-06,4.8660719251923785e-06,9.42290322520231e-06,1.5658791771708935e-05,1.0496802931689172e-05,0.08645192299999938
5.483596154,5.4876861871566045e-06,6.757138760359478e-06,4.809123184003998e-06,9.41481182071848e-06,1.565645597478217e-05,1.0449911510283311e-05,0.08697115399999955
5.484115385,5.465523315919049e-06,6.802686894520992e-06,4.740213746597511e-06,9.41124119142418e-06,1.5653054759938182e-05,1.0405284597689724e-05,0.08749038499999973
5.484634615,5.443328806249871e-06,6.819428240287706e-06,4.640810756268547e-06,9.409593956342623e-06,1.5652651649240816e-05,1.036620219057664e-05,0.08800961499999982
5.485153846,5.438970617339968e-06,6.817197727798486e-06,4.5167912874987296e-06,9.408759130126653e-06,1.565423947439434e-05,1.0335592661224438e-05,0.088528846
5.485673077,5.440930507677777e-06,6.808574198540801e-06,4.396625235165985e-06,9.407922202337135e-06,1.5654223536979752e-05,1.0316521760593409e-05,0.08904807700000017
5.486192308,5.439179416370194e-06,6.798936559163454e-06,4.296308255547121e-06,9.406075034031562e-06,1.5646538869477186e-05,1.0311428769732328e-05,0.08956730799999946
5.486711538,5.420825671921414e-06,6.786692510151423e-06,4.207304731392711e-06,9.402365095577212e-06,1.5519405964191464e-05,1.0318348887932288e-05,0.09008653799999955
5.487230769,5.376849912855276e-06,6.768297334191278e-06,4.11297511863928e-06,9.396822838703737e-06,1.5119336536051644e-05,1.0328083771390608e-05,0.09060576899999973
5.48775,5.33293033469431e-06,6.744818099879145e-06,4.005392185480461e-06,9.390086048088956e-06,1.4619618172410769e-05,1.033100448558546e-05,0.0911249999999999
5.488269231,5.3077684626205605e-06,6.7218516046739885e-06,3.892871379995321e-06,9.383225706691182e-06,1.4382697510374268e-05,1.0325690941516251e-05,0.09164423100000008
5.488788462,5.285068603483147e-06,6.702502792768666e-06,3.791561611310145e-06,9.379271782521826e-06,1.4374068278558648e-05,1.031510315841331e-05,0.09216346199999936
5.489307692,5.25706775079135e-06,6.685495428389171e-06,3.7108171495003495e-06,9.383501624141616e-06,1.435871240628768e-05,1.0299179085428706e-05,0.09268269199999946
5.489826923,5.2296701344219134e-06,6.668118392774393e-06,3.651165457418788e-06,9.39806080912574e-06,1.4341589728317388e-05,1.0275896652941853e-05,0.09320192299999963
5.490346154,5.197197048842031e-06,6.64639562545779e-06,3.610283090409544e-06,9.417366368571533e-06,1.435130307833162e-05,1.0247750866814675e-05,0.0937211539999998
5.490865385,5.147999168889081e-06,6.6149576297275925e-06,3.5831280109140347e-06,9.432961436633588e-06,1.4291860742292324e-05,1.0222865361170067e-05,0.09424038499999998
5.491384615,5.070102545712421e-06,6.57500594255417e-06,3.561540108741981e-06,9.437948219376108e-06,1.4155975942168631e-05,1.0205477948554069e-05,0.09475961500000007
5.491903846,4.967362240063135e-06,6.539911698859254e-06,3.543960866656148e-06,9.425525705438332e-06,1.4037751919573608e-05,1.0191502090556383e-05,0.09527884599999936
5.492423077,4.883907379114865e-06,6.525251713573305e-06,3.535344082500454e-06,9.389703288810789e-06,1.3970793029469648e-05,1.0172402193726525e-05,0.09579807699999954
5.492942308,4.844997425141901e-06,6.539213571637948e-06,3.534085261562739e-06,9.328096422269128e-06,1.3919714708567418e-05,1.0138094026667732e-05,0.09631730799999971
5.493461538,4.822452983995801e-06,6.590322997450936e-06,3.535075321527154e-06,9.246010425307825e-06,1.3836168304529184e-05,1.0083455155791612e-05,0.0968365379999998
5.493980769,4.788653141418694e-06,6.690921384057307e-06,3.536561871838169e-06,9.153725505109707e-06,1.3710729066399475e-05,1.0014489402421466e-05,0.09735576899999998
5.4945,4.733480188855325e-06,6.836969168687049e-06,3.536795541041825e-06,9.056537568638273e-06,1.3621166740076375e-05,9.943821741244814e-06,0.09787500000000016
5.495019231,4.677189491146986e-06,6.997317935510148e-06,3.5288595973767917e-06,8.962183590835283e-06,1.361133543781667e-05,9.880563662160683e-06,0.09839423099999944
5.495538462,4.654277874446561e-06,7.140127793111454e-06,3.504380999654062e-06,8.88568554462787e-06,1.3590901048233304e-05,9.82585793551113e-06,0.09891346199999962
5.496057692,4.664562417892523e-06,7.261555348596544e-06,3.4666352133336875e-06,8.832122217384407e-06,1.3472165589739683e-05,9.7760915740191e-06,0.09943269199999971
5.496576923,4.682912727639434e-06,7.375071823813429e-06,3.4251572668678408e-06,8.798513300531314e-06,1.3258009973049177e-05,9.728159347398689e-06,0.09995192299999989
5.497096154,4.683369210185279e-06,7.479076675091645e-06,3.386082740417312e-06,8.785253477051689e-06,1.3007516773629456e-05,9.68297132315548e-06,0.10047115400000006
5.497615385,4.671587983353909e-06,7.556981140960364e-06,3.349396078407914e-06,8.796488453225509e-06,1.2829357523103532e-05,9.645183253584402e-06,0.10099038499999935
5.498134615,4.670786146913781e-06,7.602053517834899e-06,3.305496552701348e-06,8.83716208527891e-06,1.2795388291360376e-05,9.618946606787696e-06,0.10150961499999944
5.498653846,4.65646586599758e-06,7.6205252538612175e-06,3.2425991796784397e-06,8.893051884497744e-06,1.2774116304632547e-05,9.604855754936846e-06,0.10202884599999962
5.499173077,4.605758444342558e-06,7.622006352700063e-06,3.1612179565721147e-06,8.930295289094442e-06,1.2624376272310911e-05,9.6008713910279e-06,0.1025480769999998
5.499692308,4.5573640257566e-06,7.615755249413279e-06,3.084464836760991e-06,8.931823720415146e-06,1.2491646966500568e-05,9.603956060917144e-06,0.10306730799999997
5.500211538,4.537770595306693e-06,7.605990825448338e-06,3.031119175134055e-06,8.90639782696796e-06,1.247932596207158e-05,9.610809761531984e-06,0.10358653800000006
5.500730769,4.529353817159741e-06,7.590268692800887e-06,3.002288072206325e-06,8.861619567802895e-06,1.2459420949791137e-05,9.619544860453006e-06,0.10410576899999935
5.50125,4.520040359501387e-06,7.566142604788911e-06,2.99445834512416e-06,8.792712842436234e-06,1.239973558357668e-05,9.631325538502428e-06,0.10462499999999952
5.501769231,4.492432774667975e-06,7.537097490091287e-06,2.9945013942069696e-06,8.695312262377167e-06,1.2351043873909076e-05,9.649320766914194e-06,0.1051442309999997
5.502288462,4.429418388128772e-06,7.508661889469206e-06,2.9949297027261417e-06,8.572471777930441e-06,1.2308485182539767e-05,9.674436495059968e-06,0.10566346199999987
5.502807692,4.352451982128658e-06,7.4821583232447e-06,2.9949202469314854e-06,8.424674693281857e-06,1.2244562144420087e-05,9.702771540318636e-06,0.10618269199999997
5.503326923,4.287558067233071e-06,7.459759742722403e-06,2.993669405888318e-06,8.244797204531839e-06,1.2166403016047594e-05,9.729940620172585e-06,0.10670192300000014
5.503846154,4.241374912962978e-06,7.448051093593455e-06,2.993549006454069e-06,8.029167859845943e-06,1.211202655702091e-05,9.75448856585896e-06,0.10722115399999943
5.504365385,4.212861501891694e-06,7.448127772811516e-06,2.99387448614073e-06,7.787470547901486e-06,1.2089136528367492e-05,9.777168705448875e-06,0.1077403849999996
5.504884615,4.1851389121176136e-06,7.454929217916338e-06,2.993278707482313e-06,7.540595180997781e-06,1.2085326470687192e-05,9.799105795388204e-06,0.1082596149999997
5.505403846,4.148047886395914e-06,7.46525713673535e-06,2.9915496817882787e-06,7.309763847140457e-06,1.208792795977329e-05,9.819979106689314e-06,0.10877884599999987
5.505923077,4.108940379797966e-06,7.475814829961277e-06,2.9919808454296284e-06,7.104852685323581e-06,1.2077610781942678e-05,9.838442035065269e-06,0.10929807700000005
5.506442308,4.065437177006901e-06,7.482297906289551e-06,2.9899266490768555e-06,6.92177925268058e-06,1.2046932034196398e-05,9.851758724025496e-06,0.10981730799999934
5.506961538,4.018726412293637e-06,7.483922120322201e-06,2.967518305532194e-06,6.754086079836202e-06,1.2009042333535889e-05,9.855072949723884e-06,0.11033653799999943
5.507480769,3.98487173859927e-06,7.483902104938057e-06,2.922796788577381e-06,6.606869703012979e-06,1.1990314823215917e-05,9.84720206161436e-06,0.1108557689999996
5.508,3.9642394878643e-06,7.485663997488525e-06,2.874860851003501e-06,6.489389255830474e-06,1.2013573013445871e-05,9.83665821614167e-06,0.11137499999999978
5.508519231,3.935251157912788e-06,7.490537370055737e-06,2.837207215253891e-06,6.39677141174302e-06,1.207981302231932e-05,9.831841528717712e-06,0.11189423099999996
5.509038462,3.88628247355087e-06,7.499304427050079e-06,2.811552457641152e-06,6.323299384696105e-06,1.214219827933508e-05,9.830915501271596e-06,0.11241346200000013
5.509557692,3.822069125472133e-06,7.511255687935427e-06,2.7976620856286754e-06,6.279505013014931e-06,1.2145071179802647e-05,9.829190759875285e-06,0.11293269199999934
5.510076923,3.753416047603235e-06,7.522082928115584e-06,2.794125466226064e-06,6.270999232023406e-06,1.220623298719184e-05,9.825600289949342e-06,0.11345192299999951
5.510596154,3.701163033486329e-06,7.528482357950624e-06,2.7951516533841343e-06,6.282630041518697e-06,1.2423215302190807e-05,9.82173680483081e-06,0.11397115399999969
5.511115385,3.672466619777829e-06,7.531484439672031e-06,2.7954859493412195e-06,6.295425179191297e-06,1.2564886460309653e-05,9.82130129185218e-06,0.11449038499999986
5.511634615,3.657766627089677e-06,7.533342983864265e-06,2.795340763188232e-06,6.301697444049691e-06,1.2561403365025474e-05,9.82496117281296e-06,0.11500961499999995
5.512153846,3.6535369208626873e-06,7.535288874945872e-06,2.794970988185171e-06,6.3018453372123495e-06,1.267907805508919e-05,9.826030282903384e-06,0.11552884600000013
5.512673077,3.6541209027028303e-06,7.537026242218624e-06,2.791334580430184e-06,6.31239805942589e-06,1.291678538568297e-05,9.818608931260128e-06,0.11604807699999942
5.513192308,3.654336545018856e-06,7.536536863951632e-06,2.785135665651485e-06,6.388957229399854e-06,1.3054732186016392e-05,9.805696958627064e-06,0.11656730799999959
5.513711538,3.653633399482869e-06,7.531737390455553e-06,2.781104793149997e-06,6.583619827928725e-06,1.3079434915077523e-05,9.79395147987952e-06,0.11708653799999968
5.514230769,3.6518401395547807e-06,7.523201674065559e-06,2.78052241183252e-06,6.8413656397977244e-06,1.3077019043774252e-05,9.786115798377429e-06,0.11760576899999986
5.51475,3.651335773038419e-06,7.514817092140605e-06,2.7809537416328144e-06,7.031395036034976e-06,1.3070228073271856e-05,9.781835583367404e-06,0.11812500000000004
5.515269231,3.652098105903458e-06,7.510779945289331e-06,2.778427635544697e-06,7.101551404710022e-06,1.3060166758013895e-05,9.780675597824385e-06,0.11864423100000021
5.515788462,3.6506656044071465e-06,7.5114608329142656e-06,2.772749452987557e-06,7.104251136858885e-06,1.3052458992176392e-05,9.780676149893668e-06,0.1191634619999995
5.516307692,3.646189606612846e-06,7.515888593486813e-06,2.769116207520511e-06,7.093661928807685e-06,1.30520602721874e-05,9.777612222228164e-06,0.11968269199999959
5.516826923,3.6413685669832207e-06,7.525675115186003e-06,2.768211516821081e-06,7.08218474466916e-06,1.3058433462923708e-05,9.77029302377277e-06,0.12020192299999977
5.517346154,3.640835491359945e-06,7.542125120394364e-06,2.76732578276482e-06,7.063716541923559e-06,1.3066025957816698e-05,9.762105645232927e-06,0.12072115399999994
5.517865385,3.6511773070713607e-06,7.5653076702242845e-06,2.764574275662118e-06,7.031658526862501e-06,1.3072238850680534e-05,9.755212670176788e-06,0.12124038500000012
5.518384615,3.6643365561318448e-06,7.594803854682151e-06,2.7619044184323573e-06,7.008689948401679e-06,1.3075960473722395e-05,9.746935219184295e-06,0.12175961500000021
5.518903846,3.668259527772255e-06,7.6247653421768e-06,2.7638311112338137e-06,7.087309364031306e-06,1.3067901403239604e-05,9.734284202918236e-06,0.1222788459999995
5.519423077,3.6685426880247143e-06,7.64269923730054e-06,2.7670479659439803e-06,7.349546582438413e-06,1.3032886856578058e-05,9.721973444654391e-06,0.12279807699999967
5.519942308,3.662347212176137e-06,7.641955191244692e-06,2.7682861236741887e-06,7.690295973504237e-06,1.2967496377553588e-05,9.71744767023131e-06,0.12331730799999985
5.520461538,3.660009986841348e-06,7.62831707803049e-06,2.768319295048268e-06,7.917788578837423e-06,1.2880437708707286e-05,9.724391325865455e-06,0.12383653799999994
5.520980769,3.667047017705271e-06,7.610360505803917e-06,2.769171051649373e-06,7.994865793458899e-06,1.2777887927196884e-05,9.741225881318972e-06,0.12435576900000012
5.5215,3.649575298166868e-06,7.592739170397611e-06,2.7715745175356324e-06,8.004806783631677e-06,1.267134734869416e-05,9.759889089380022e-06,0.1248749999999994
5.522019231,3.622395978575572e-06,7.576092694181728e-06,2.7720174179082907e-06,8.00710228749316e-06,1.2599257131584904e-05,9.775882383090449e-06,0.12539423099999958
5.522538462,3.621874041643624e-06,7.558755792647138e-06,2.771991366298201e-06,8.022343258101856e-06,1.2614203257616392e-05,9.791761925540882e-06,0.12591346199999975
5.523057692,3.6266073821533727e-06,7.541121633389039e-06,2.7725407538914616e-06,8.056944537408887e-06,1.2720108940371711e-05,9.810812952561154e-06,0.12643269199999985
5.523576923,3.626429263358115e-06,7.526993737134591e-06,2.7724316300135742e-06,8.105350610472497e-06,1.2825706191604915e-05,9.830981092559037e-06,0.12695192300000002
5.524096154,3.62795618022304e-06,7.519301996198937e-06,2.771171788466853e-06,8.157228892360815e-06,1.2806905304262837e-05,9.84264649562351e-06,0.1274711540000002
5.524615385,3.615819008447488e-06,7.5166560889850116e-06,2.763430632542596e-06,8.20449733196161e-06,1.2654232251053871e-05,9.840297288306423e-06,0.12799038499999948
5.525134615,3.5943541087710043e-06,7.5158462049349215e-06,2.7491356018496998e-06,8.243527184887759e-06,1.2503399480060058e-05,9.829083092394356e-06,0.12850961499999958
5.525653846,3.5831452444473743e-06,7.515682792441991e-06,2.738752233507251e-06,8.274499497364281e-06,1.245149328321402e-05,9.815890584259008e-06,0.12902884599999975
5.526173077,3.580578642179424e-06,7.516431417971893e-06,2.739191254295817e-06,8.29651481171236e-06,1.245727873459231e-05,9.805131980341766e-06,0.12954807699999993
5.526692308,3.5770440622916616e-06,7.517296166698192e-06,2.747351886019243e-06,8.306845054097024e-06,1.2465109927819275e-05,9.802425597906456e-06,0.1300673080000001
5.527211538,3.5631877761982093e-06,7.5165131462411325e-06,2.7586272755907103e-06,8.307862547919325e-06,1.2464549269270888e-05,9.811746389945868e-06,0.1305865380000002
5.527730769,3.535949517332577e-06,7.516076616580072e-06,2.7687709114775675e-06,8.30708917671939e-06,1.244574297773476e-05,9.827670791701362e-06,0.13110576899999948
5.52825,3.5096844227919225e-06,7.514472880035014e-06,2.770321601650126e-06,8.31009370880009e-06,1.240040331064994e-05,9.841557976428522e-06,0.13162499999999966
5.528769231,3.4942913966145066e-06,7.49980656001631e-06,2.762050220286654e-06,8.31963864171626e-06,1.2346518231217184e-05,9.85318141081876e-06,0.13214423099999983
5.529288462,3.485028742442339e-06,7.471820912665297e-06,2.754477625462576e-06,8.33278436572684e-06,1.2315505617123336e-05,9.869423811207137e-06,0.132663462
5.529807692,3.476977704960836e-06,7.446504753157794e-06,2.7551517618727016e-06,8.339939212190813e-06,1.2316567295775148e-05,9.897378579427532e-06,0.1331826920000001
5.530326923,3.463388006342806e-06,7.431713887876643e-06,2.760926076926373e-06,8.336671873493731e-06,1.2330046857967715e-05,9.937000695403346e-06,0.1337019229999994
5.530846154,3.438345098816163e-06,7.4282568108545e-06,2.7674546080644624e-06,8.326765787736823e-06,1.2337421014776392e-05,9.980609951885274e-06,0.13422115399999957
5.531365385,3.400711646031642e-06,7.443463576979693e-06,2.773018583641741e-06,8.316115577683327e-06,1.2337844302540908e-05,1.001866879653168e-05,0.13474038499999974
5.531884615,3.356588278739201e-06,7.481336249434562e-06,2.776010737132672e-06,8.310446833313362e-06,1.2336507283344642e-05,1.0044817581945762e-05,0.13525961499999983
5.532403846,3.335179474818485e-06,7.528192799066458e-06,2.773655716167542e-06,8.31372559624683e-06,1.2336020890583065e-05,1.0058636051485357e-05,0.135778846
5.532923077,3.350859275789712e-06,7.567374709838205e-06,2.7634746525482982e-06,8.32867107243043e-06,1.233651353640012e-05,1.006186005428354e-05,0.13629807700000018
5.533442308,3.363905449411013e-06,7.597505798382349e-06,2.749759142133505e-06,8.351862741383007e-06,1.233710509482709e-05,1.0056181678953072e-05,0.13681730799999947
5.533961538,3.36083703962265e-06,7.626508141309331e-06,2.741165903621138e-06,8.373221076299444e-06,1.233725529959602e-05,1.0044848815352016e-05,0.13733653799999956
5.534480769,3.362773422511425e-06,7.667377630632156e-06,2.7377710887324887e-06,8.389629062748756e-06,1.233502063748106e-05,1.0032084557078424e-05,0.13785576899999974
5.535,3.350708133321235e-06,7.724846975321732e-06,2.7348727956004133e-06,8.409151047636984e-06,1.2332030120696949e-05,1.0021180121084476e-05,0.13837499999999991
5.535519231,3.325424088777484e-06,7.782007834410056e-06,2.729905904102123e-06,8.446086605222902e-06,1.233447473472828e-05,1.0013420568677124e-05,0.1388942310000001
5.536038462,3.3215295621892583e-06,7.821856601699505e-06,2.725016119359472e-06,8.515269409348435e-06,1.234077462612533e-05,1.0008891411630244e-05,0.13941346199999938
5.536557692,3.3263762735795923e-06,7.845065497405131e-06,2.726750254145494e-06,8.619909908565617e-06,1.234413730640477e-05,1.0006991333226585e-05,0.13993269199999947
5.537076923,3.319530512915471e-06,7.860752843456096e-06,2.734306051610383e-06,8.749993292577523e-06,1.2342004605521197e-05,1.0006394216215094e-05,0.14045192299999965
5.537596154,3.3155698220995366e-06,7.87566099939308e-06,2.744211837537175e-06,8.894694651986291e-06,1.233926462976194e-05,1.000592043958709e-05,0.14097115399999982
5.538115385,3.317391590649225e-06,7.890339442043744e-06,2.760018972103391e-06,9.045863936653436e-06,1.23445462129351e-05,1.0006439560829969e-05,0.141490385
5.538634615,3.309075474602842e-06,7.89852713995173e-06,2.792035150924677e-06,9.193369088107657e-06,1.234631635452052e-05,1.0009870558273066e-05,0.1420096150000001
5.539153846,3.2882401307550077e-06,7.894461850869946e-06,2.844545103572309e-06,9.324446601900222e-06,1.2324666823474389e-05,1.0014270790634993e-05,0.14252884599999938
5.539673077,3.2705703650977582e-06,7.880552771591972e-06,2.9054830208923007e-06,9.428789122437832e-06,1.2290946448980792e-05,1.0015748379424664e-05,0.14304807699999955
5.540192308,3.267973071211384e-06,7.863991904462796e-06,2.969808293032608e-06,9.506989192302748e-06,1.226624658766177e-05,1.0014024667560574e-05,0.14356730799999973
5.540711538,3.272459451202923e-06,7.849997217526942e-06,3.046230592603016e-06,9.570077351858298e-06,1.2250996775881752e-05,1.0010183532933364e-05,0.14408653799999982
5.541230769,3.274304988412437e-06,7.840328502094434e-06,3.1356598518780437e-06,9.62891152212831e-06,1.223721190557484e-05,1.0002502948921156e-05,0.144605769
5.54175,3.271695970221768e-06,7.83624771899056e-06,3.2257827688136046e-06,9.687199248555249e-06,1.2221006668589968e-05,9.988251542573212e-06,0.14512500000000017
5.542269231,3.2638495026632507e-06,7.840238466916386e-06,3.2999033446259813e-06,9.741313500768757e-06,1.2204493475107876e-05,9.971601174894928e-06,0.14564423099999946
5.542788462,3.25893087373005e-06,7.85240415821923e-06,3.351290041810715e-06,9.785667132766888e-06,1.2190502276587969e-05,9.964367366746144e-06,0.14616346199999963
5.543307692,3.266694251183034e-06,7.867794350225586e-06,3.387666822108589e-06,9.81913738056116e-06,1.2179966606041664e-05,9.971467938853022e-06,0.14668269199999973
5.543826923,3.283869117077488e-06,7.881515641038883e-06,3.4190121236720955e-06,9.844393991346608e-06,1.217756658854913e-05,9.98371935519299e-06,0.1472019229999999
5.544346154,3.295381708105963e-06,7.893388701949058e-06,3.4476084708456094e-06,9.86374110926577e-06,1.2194413619529791e-05,9.990945142077706e-06,0.14772115400000008
5.544865385,3.2970307663963987e-06,7.907414494600244e-06,3.4721507013243414e-06,9.877372471556931e-06,1.2232392651323388e-05,9.992259897032068e-06,0.14824038499999936
5.545384615,3.297013264916961e-06,7.930724754872353e-06,3.4942182369553714e-06,9.883213663036669e-06,1.227188751810549e-05,9.990723743686353e-06,0.14875961499999946
5.545903846,3.2972200855822588e-06,7.965870682375638e-06,3.5164172476251136e-06,9.878167111591129e-06,1.2296533549827936e-05,9.987908431837912e-06,0.14927884599999963
5.546423077,3.300776838813049e-06,8.003739726381375e-06,3.5371484070332536e-06,9.862114736187891e-06,1.2309751996212056e-05,9.985494677425607e-06,0.1497980769999998
5.546942308,3.296628441658073e-06,8.035191492696359e-06,3.5497767682084e-06,9.841151294289764e-06,1.2321467981241972e-05,9.986075589794434e-06,0.15031730799999998
5.547461538,3.2813034500800144e-06,8.06328100318649e-06,3.5509057469303383e-06,9.82357735392014e-06,1.2331813479727116e-05,9.99009515498211e-06,0.15083653800000008
5.547980769,3.2792462872205163e-06,8.098039818032785e-06,3.5492638155569684e-06,9.812304233630637e-06,1.23322748411458e-05,9.995294329295016e-06,0.15135576899999936
5.5485,3.2866034838676544e-06,8.14805953100595e-06,3.558560706210561e-06,9.804833596728736e-06,1.2330763755050844e-05,9.999750814720914e-06,0.15187499999999954
5.549019231,3.287284137583533e-06,8.212921306673482e-06,3.582162459702488e-06,9.799226919889657e-06,1.2333508988235855e-05,1.0001857203143933e-05,0.1523942309999997
5.549538462,3.284609473240914e-06,8.280527338719989e-06,3.614283605367731e-06,9.792431944416284e-06,1.2331663191883311e-05,9.998897910990205e-06,0.1529134619999999
5.550057692,3.2753463021420964e-06,8.335882749070024e-06,3.653203274973676e-06,9.77772535794324e-06,1.233671292374354e-05,9.988567016204144e-06,0.15343269199999998
5.550576923,3.257959045760278e-06,8.370649059807641e-06,3.706946474821343e-06,9.758371999219532e-06,1.2351138354906203e-05,9.970759272243832e-06,0.15395192300000016
5.551096154,3.237061190239396e-06,8.38795708602514e-06,3.7859065524412776e-06,9.748441695217604e-06,1.2353713498197414e-05,9.94611780015634e-06,0.15447115399999944
5.551615385,3.211990312111338e-06,8.397409813129937e-06,3.884713418229684e-06,9.74864832122191e-06,1.2346722896246842e-05,9.913115599199627e-06,0.15499038499999962
5.552134615,3.189914982958505e-06,8.403538352843594e-06,3.974813044936546e-06,9.750207113738276e-06,1.2343574751572248e-05,9.86868660833916e-06,0.1555096149999997
5.552653846,3.175982790610191e-06,8.403783202234155e-06,4.032350499708456e-06,9.753644132969554e-06,1.2342995071217736e-05,9.813123141412204e-06,0.1560288459999999
5.553173077,3.1606586568483133e-06,8.394133191859932e-06,4.062072157602974e-06,9.767339341786328e-06,1.2340373192431771e-05,9.753713715546224e-06,0.15654807700000006
5.553692308,3.1370539391979053e-06,8.37971713009148e-06,4.077559968696821e-06,9.808633393406207e-06,1.23346061374636e-05,9.701593886988684e-06,0.15706730799999935
5.554211538,3.1141067297861378e-06,8.372669998898234e-06,4.087609865113768e-06,9.882844219385372e-06,1.2329337480789618e-05,9.664722318989434e-06,0.15758653799999944
5.554730769,3.1065409259735093e-06,8.372373200996449e-06,4.099561128453684e-06,9.96164951527328e-06,1.2327302388930675e-05,9.64241839776403e-06,0.15810576899999962
5.55525,3.113425064728718e-06,8.371933475198862e-06,4.111327593350845e-06,1.0017859655609734e-05,1.2327719417765488e-05,9.626497014332607e-06,0.1586249999999998
5.555769231,3.1198889545080867e-06,8.371804800773972e-06,4.121600107997418e-06,1.005250429401316e-05,1.2332553814803033e-05,9.608339513320552e-06,0.15914423099999997
5.556288462,3.115001103292713e-06,8.371336188946404e-06,4.13756381726706e-06,1.0079412076434676e-05,1.2349980442939131e-05,9.58335463550758e-06,0.15966346200000014
5.556807692,3.1106418140942106e-06,8.369502559426532e-06,4.160479875691435e-06,1.0110538543113345e-05,1.2378498086606135e-05,9.552303321948334e-06,0.16018269199999935
5.557326923,3.11156961561943e-06,8.369241284154172e-06,4.1839961510249386e-06,1.0150883731478285e-05,1.2399662632183628e-05,9.520596953340626e-06,0.16070192299999952
5.557846154,3.107784044611244e-06,8.374019563600754e-06,4.20531509355911e-06,1.0198610918267673e-05,1.2405685334010578e-05,9.495184716158244e-06,0.1612211539999997
5.558365385,3.1147273354260065e-06,8.385187600462065e-06,4.226922997334867e-06,1.024800148523755e-05,1.2403764615789134e-05,9.480504731712028e-06,0.16174038499999988
5.558884615,3.120136287123177e-06,8.398104043473823e-06,4.249363111785462e-06,1.0288778308238966e-05,1.2402269366691224e-05,9.472891607468636e-06,0.16225961499999997
5.559403846,3.0851154624300262e-06,8.406229156812677e-06,4.266910412925019e-06,1.0309981903394524e-05,1.240272302710798e-05,9.46924841046571e-06,0.16277884600000014
5.559923077,3.0363319222757634e-06,8.409835368221168e-06,4.274276616855506e-06,1.0313442260312646e-05,1.2402197197110296e-05,9.471848484732887e-06,0.16329807699999943
5.560442308,3.010978395415175e-06,8.4132304753286e-06,4.274572067722762e-06,1.0313362248401442e-05,1.2402217146866747e-05,9.472592971376106e-06,0.1638173079999996
5.560961538,2.99528773497434e-06,8.41894786729731e-06,4.272086650522657e-06,1.0316166424398674e-05,1.2398090647932178e-05,9.47971871208717e-06,0.1643365379999997
5.561480769,2.978643040789665e-06,8.425123242686803e-06,4.268441420252052e-06,1.0317305322477788e-05,1.2387166719172922e-05,9.521053228700025e-06,0.16485576899999987
5.562,2.949329417733592e-06,8.42575123882917e-06,4.2669437560172495e-06,1.031811991629463e-05,1.2382308226007566e-05,9.5822642038939e-06,0.16537500000000005
5.562519231,2.90662648473792e-06,8.421127726755497e-06,4.271178067455307e-06,1.0328883952446794e-05,1.2386168833446531e-05,9.63163449399025e-06,0.16589423099999934
5.563038462,2.8853746147780887e-06,8.418503782289453e-06,4.2786247518945e-06,1.0357163613598814e-05,1.2388859830308275e-05,9.671146989822906e-06,0.1664134619999995
5.563557692,2.891118719280045e-06,8.41932599532653e-06,4.282744802862112e-06,1.0402927642058938e-05,1.2389754207128648e-05,9.720242101762734e-06,0.1669326919999996
5.564076923,2.898051255453848e-06,8.424461758298015e-06,4.282995411063155e-06,1.0461143950572537e-05,1.2389491007953103e-05,9.77561554138162e-06,0.16745192299999978
5.564596154,2.892951685154644e-06,8.440269966338525e-06,4.283069646233037e-06,1.0520531656026117e-05,1.2387763947618415e-05,9.789984974686515e-06,0.16797115399999996
5.565115385,2.874573691375855e-06,8.466286221784043e-06,4.289678087388469e-06,1.0564045291595064e-05,1.2388518532901928e-05,9.736127414733755e-06,0.16849038500000013
5.565634615,2.857952461301287e-06,8.492899389950464e-06,4.306679962153032e-06,1.0582727974915886e-05,1.239149548498232e-05,9.646585800412072e-06,0.16900961499999934
5.566153846,2.85380068689524e-06,8.51298453010619e-06,4.326090641822224e-06,1.0586020167527574e-05,1.2393813733703834e-05,9.555261000104468e-06,0.1695288459999995
5.566673077,2.8557198111137845e-06,8.52798185489001e-06,4.340549519093186e-06,1.0586084023900723e-05,1.2394576199825632e-05,9.469912739860298e-06,0.1700480769999997
5.567192308,2.8588310840097224e-06,8.54193523920981e-06,4.352209870540277e-06,1.0585764430083963e-05,1.2392763652769735e-05,9.387486620341358e-06,0.17056730799999986
5.567711538,2.8601830236296065e-06,8.55499215808753e-06,4.36563936566978e-06,1.0587154993097436e-05,1.2390132942880611e-05,9.301018074104863e-06,0.17108653799999995
5.568230769,2.860541180301445e-06,8.566526465400448e-06,4.379312173892206e-06,1.058943006747722e-05,1.2389736246897285e-05,9.210907370056732e-06,0.17160576900000013
5.56875,2.8582794606636874e-06,8.575296615650119e-06,4.382903260958843e-06,1.0587475964382387e-05,1.2390046230476026e-05,9.128851130701142e-06,0.17212499999999942
5.569269231,2.84371075726214e-06,8.577499378953448e-06,4.371043560906272e-06,1.0583921402004408e-05,1.2389433968896972e-05,9.06271099907014e-06,0.1726442309999996
5.569788462,2.8219399123509965e-06,8.570562448547051e-06,4.355255303797505e-06,1.0585940949142251e-05,1.238909439157429e-05,9.000474904891198e-06,0.17316346199999977
5.570307692,2.8158110962551693e-06,8.55644020678007e-06,4.349746577558682e-06,1.0599848261986194e-05,1.2389097038579105e-05,8.935616775746458e-06,0.17368269199999986
5.570826923,2.8330848263830027e-06,8.541429168884072e-06,4.353073048820263e-06,1.0634423294746104e-05,1.238933851973897e-05,8.882781006903524e-06,0.17420192300000004
5.571346154,2.851647146499724e-06,8.529135178615366e-06,4.355758325680307e-06,1.0694130128295934e-05,1.2390847973088957e-05,8.84346394389581e-06,0.1747211540000002
5.571865385,2.8507436316857283e-06,8.519210021139832e-06,4.3543362034345255e-06,1.0776028407769345e-05,1.2393197053410567e-05,8.810595064143674e-06,0.1752403849999995
5.572384615,2.8355472152100536e-06,8.513516016229822e-06,4.351570091804582e-06,1.0864919291156488e-05,1.2395898022839715e-05,8.79320053324435e-06,0.1757596149999996
5.572903846,2.8251645352742395e-06,8.514406851585955e-06,4.351306793063277e-06,1.0920882035806403e-05,1.2396594715616854e-05,8.813522882765394e-06,0.17627884599999977
5.573423077,2.825696293847324e-06,8.521652280861179e-06,4.35378128243741e-06,1.092480355082478e-05,1.238923704153114e-05,8.882485344220713e-06,0.17679807699999994
5.573942308,2.8182207278986222e-06,8.527592263611924e-06,4.356267167403833e-06,1.093375747434684e-05,1.2379458818380685e-05,8.951361989714878e-06,0.17731730800000012
5.574461538,2.7993015670995093e-06,8.523505384467234e-06,4.356822869417117e-06,1.1006179002499622e-05,1.2377862270666082e-05,8.964291704619679e-06,0.1778365380000002
5.574980769,2.7904185459774928e-06,8.51378163594743e-06,4.355091211167565e-06,1.1106599326477229e-05,1.238170879549218e-05,8.943619884900841e-06,0.1783557689999995
5.5755,2.7902126280481564e-06,8.506132923842948e-06,4.353015782139506e-06,1.1159535024390284e-05,1.2385114886345362e-05,8.92694844229092e-06,0.17887499999999967
5.576019231,2.790505599344516e-06,8.4999116013297e-06,4.3527088939461415e-06,1.115092801835174e-05,1.238140783193644e-05,8.913521905315854e-06,0.17939423099999985
5.576538462,2.7902419012442727e-06,8.492768143125404e-06,4.352188434534318e-06,1.1129888796213004e-05,1.2367123952061696e-05,8.894663362559634e-06,0.17991346200000002
5.577057692,2.7791101324426417e-06,8.486315313181237e-06,4.349600543709682e-06,1.113097754730475e-05,1.2350089793394066e-05,8.8694646230558e-06,0.18043269200000012
5.577576923,2.7679968157638183e-06,8.484005055352308e-06,4.346787194357152e-06,1.1141868614189096e-05,1.2336947478721022e-05,8.847723680405996e-06,0.1809519229999994
5.578096154,2.772529737133748e-06,8.485809273766982e-06,4.345066547474308e-06,1.1146433068760563e-05,1.2327088549018431e-05,8.84824577151939e-06,0.18147115399999958
5.578615385,2.781232555017678e-06,8.487856788057018e-06,4.342522247976179e-06,1.11482284323385e-05,1.2316903857487648e-05,8.877759178679865e-06,0.18199038499999975
5.579134615,2.7847766544041357e-06,8.486058876825165e-06,4.3364724619364905e-06,1.1154302616861932e-05,1.2296534672752343e-05,8.915760073174486e-06,0.18250961499999985
5.579653846,2.784752277781357e-06,8.47726694035046e-06,4.328685227505063e-06,1.1161706966741229e-05,1.2247869215842666e-05,8.937066234592353e-06,0.18302884600000002
5.580173077,2.7876808075331665e-06,8.46251860927292e-06,4.321965683500245e-06,1.116366644850127e-05,1.2157725720320209e-05,8.932867642587216e-06,0.1835480770000002
5.580692308,2.802019617985931e-06,8.446508643220413e-06,4.314728360876178e-06,1.1163127634874982e-05,1.2037639689134916e-05,8.926430168299492e-06,0.18406730799999949
5.581211538,2.8184913154012765e-06,8.428972770604548e-06,4.307734849367125e-06,1.1165430765861768e-05,1.1915358994179809e-05,8.96932583113297e-06,0.18458653799999958
5.581730769,2.821470169844312e-06,8.403102711296468e-06,4.302652075377973e-06,1.116737047756613e-05,1.1806594758822704e-05,9.040059045743933e-06,0.18510576899999975
5.58225,2.819878928787913e-06,8.363881349530142e-06,4.298570089936791e-06,1.1167438250810372e-05,1.171390023133526e-05,9.036972973081684e-06,0.18562499999999993
5.582769231,2.819681826423264e-06,8.314393003089499e-06,4.296024461533756e-06,1.1174845589297067e-05,1.1643705008674126e-05,9.028490989440129e-06,0.1861442310000001
5.583288462,2.8197011642841227e-06,8.265746139602746e-06,4.2942860813975705e-06,1.1199630865391725e-05,1.160771287756242e-05,9.185789508842311e-06,0.1866634619999994
5.583807692,2.8454612474770263e-06,8.230562499442803e-06,4.296981089151064e-06,1.1237000189289478e-05,1.160625851703092e-05,9.40043586764684e-06,0.18718269199999948
5.584326923,2.8940066898977518e-06,8.213223871828848e-06,4.308126547802749e-06,1.1267705168757126e-05,1.1622528594345812e-05,9.466942755660765e-06,0.18770192299999966
5.584846154,2.9242808551573645e-06,8.206203375784586e-06,4.319928943453479e-06,1.1278567776708347e-05,1.1631798641924513e-05,9.437845778957027e-06,0.18822115399999984
5.585365385,2.927153111878088e-06,8.198274494268393e-06,4.32518861656442e-06,1.1274344731630395e-05,1.1620983282481124e-05,9.451652907379493e-06,0.188740385
5.585884615,2.920208104119285e-06,8.186209269534772e-06,4.3269483866610135e-06,1.1265971564819842e-05,1.160377426002138e-05,9.482705076504113e-06,0.1892596150000001
5.586403846,2.916981856502426e-06,8.176264223792323e-06,4.329490195822128e-06,1.1259856668090314e-05,1.1585192833003897e-05,9.457347758689132e-06,0.1897788459999994
5.586923077,2.918643668884214e-06,8.174042417802017e-06,4.332438500307842e-06,1.125735723976734e-05,1.1553928386543858e-05,9.401865533915576e-06,0.19029807699999957
5.587442308,2.917915019158584e-06,8.176990041774622e-06,4.334392795263751e-06,1.1255633031629536e-05,1.150678978165652e-05,9.36632190236523e-06,0.19081730799999974
5.587961538,2.926507635976158e-06,8.179626885624024e-06,4.335927841154502e-06,1.1251404106159142e-05,1.1407606233693683e-05,9.344786938892538e-06,0.19133653799999983
5.588480769,2.9601044320133016e-06,8.180162176722002e-06,4.337445633786164e-06,1.1244313867139906e-05,1.1217212743296678e-05,9.315322136966326e-06,0.191855769
5.589,2.995268529039087e-06,8.179799191380337e-06,4.339417218858651e-06,1.123679466283368e-05,1.0987128218299596e-05,9.273184714377932e-06,0.19237500000000018
5.589519231,3.007616318660901e-06,8.17971218590361e-06,4.341194987954743e-06,1.1231220961957696e-05,1.0802579747973123e-05,9.214136288077912e-06,0.19289423099999947
5.590038462,3.011744042529048e-06,8.179725963539956e-06,4.340638406161039e-06,1.1227157391011527e-05,1.068533873473252e-05,9.133059492980463e-06,0.19341346199999965
5.590557692,3.021091384272607e-06,8.180411371702068e-06,4.342744478268669e-06,1.122284196272834e-05,1.0614397954277196e-05,9.042126378084124e-06,0.19393269199999974
5.591076923,3.0330106306386834e-06,8.183318732868906e-06,4.352586467340176e-06,1.1217666846818712e-05,1.0567830002572454e-05,8.966285523512137e-06,0.19445192299999992
5.591596154,3.0450170236128644e-06,8.185755737796457e-06,4.3617408069075e-06,1.1213599763864594e-05,1.0534285762732268e-05,8.922550475869522e-06,0.1949711540000001
5.592115385,3.0509269328321524e-06,8.183310538808043e-06,4.363021277660265e-06,1.1214937182397848e-05,1.0512660210172358e-05,8.911478541948035e-06,0.19549038499999938
5.592634615,3.0506281684753466e-06,8.17903130801955e-06,4.369541288909435e-06,1.1223668478926768e-05,1.0501707714899862e-05,8.921646646279212e-06,0.19600961499999947
5.593153846,3.050469964337892e-06,8.178151542176404e-06,4.396900456648864e-06,1.1234408076749636e-05,1.0499410860437624e-05,8.94038984436253e-06,0.19652884599999965
5.593673077,3.0516358893181835e-06,8.178195836249971e-06,4.430990766574228e-06,1.123915183841129e-05,1.0512192287091552e-05,8.962340889267902e-06,0.19704807699999982
5.594192308,3.059959715455703e-06,8.176811062552761e-06,4.448301667686596e-06,1.1237854282551162e-05,1.053993415256184e-05,8.989535131917028e-06,0.197567308
5.594711538,3.0767640615771944e-06,8.177495363081268e-06,4.4477524637978144e-06,1.1234902278378066e-05,1.0576548355477594e-05,9.027173308847532e-06,0.1980865380000001
5.595230769,3.087295451684465e-06,8.180774087540188e-06,4.436547765894132e-06,1.1231822494163414e-05,1.062160673367285e-05,9.075327150206168e-06,0.19860576899999938
5.59575,3.089120790776931e-06,8.183942117883474e-06,4.431294287090845e-06,1.1233274353291462e-05,1.0664634231098146e-05,9.122963827579415e-06,0.19912499999999955
5.596269231,3.0873281867414097e-06,8.187109611549829e-06,4.455788927358534e-06,1.1239042658769295e-05,1.067658272187934e-05,9.15966437594804e-06,0.19964423099999973
5.596788462,3.0775894320423395e-06,8.193142206802409e-06,4.5009598585809296e-06,1.1240498772404055e-05,1.0676389344895976e-05,9.18916800715609e-06,0.2001634619999999
5.597307692,3.0701207591292925e-06,8.206158850339877e-06,4.537445419304125e-06,1.1241173573399038e-05,1.0787147459769596e-05,9.221744342498196e-06,0.200682692
5.597826923,3.0741262703106126e-06,8.226347491108442e-06,4.557667956683677e-06,1.124213644955226e-05,1.0987522986403004e-05,9.26139857280276e-06,0.20120192300000017
5.598346154,3.077528467570429e-06,8.245913889479654e-06,4.569559032811569e-06,1.1232015989739916e-05,1.107793272985941e-05,9.30130296247494e-06,0.20172115399999946
5.598865385,3.0765702731579733e-06,8.255845464269912e-06,4.577846769301759e-06,1.1219259854406478e-05,1.1076048129360898e-05,9.33036149486483e-06,0.20224038499999963
5.599384615,3.072093028971657e-06,8.256161853143579e-06,4.581875715432647e-06,1.1216853041941876e-05,1.107185788730782e-05,9.345869890194295e-06,0.20275961499999973
5.599903846,3.073003778770976e-06,8.254393390196535e-06,4.582158573853382e-06,1.1217093618642962e-05,1.122919342399153e-05,9.352605740913124e-06,0.2032788459999999
5.600423077,3.0917571372103437e-06,8.25401429097156e-06,4.581874336968796e-06,1.1216363913805266e-05,1.2262706073637031e-05,9.353288350302862e-06,0.20379807700000008
5.600942308,3.0989466392176493e-06,8.254019488085329e-06,4.583358883461399e-06,1.121791461671742e-05,1.4264278791501443e-05,9.347407434943264e-06,0.20431730799999936
5.601461538,3.08360977903136e-06,8.255517618271694e-06,4.589360801427849e-06,1.121892008360584e-05,1.60259599470188e-05,9.33597697645708e-06,0.20483653799999946
5.601980769,3.076613256087019e-06,8.25692518485769e-06,4.598837628983611e-06,1.1218773738687048e-05,1.6757702221083015e-05,9.32466564181099e-06,0.20535576899999963
5.6025,3.076848511518447e-06,8.252224480830268e-06,4.605671062886983e-06,1.1218892083373894e-05,1.6820807209845266e-05,9.319313122153255e-06,0.2058749999999998
5.603019231,3.0768942538293443e-06,8.239087072300005e-06,4.607830536584905e-06,1.1218809684891073e-05,1.6861374822191395e-05,9.318189121626425e-06,0.20639423099999998
5.603538462,3.0804654987129417e-06,8.21492429332891e-06,4.607717511909297e-06,1.1219739381412696e-05,1.7032681222208687e-05,9.315838594257837e-06,0.20691346200000016
5.604057692,3.0800158220956293e-06,8.16830574133285e-06,4.6019937759741575e-06,1.122133861231809e-05,1.7181110334296973e-05,9.310678278658082e-06,0.20743269199999936
5.604576923,3.0841093001675e-06,8.094292941662253e-06,4.590241272208364e-06,1.122110271498882e-05,1.7227592150696657e-05,9.303237116743751e-06,0.20795192299999954
5.605096154,3.09817609978865e-06,8.010202948938018e-06,4.582832417307494e-06,1.1220771414844855e-05,1.721456462093367e-05,9.292186687645688e-06,0.20847115399999971
5.605615385,3.1061960903869297e-06,7.935855489330598e-06,4.5847105261584745e-06,1.122215600638312e-05,1.718631481095856e-05,9.276473176257132e-06,0.2089903849999999
5.606134615,3.1065320251636144e-06,7.871126270654345e-06,4.594297240751368e-06,1.1221599437606669e-05,1.7165307690001813e-05,9.260998775975051e-06,0.20950961499999998
5.606653846,3.1056304668096595e-06,7.80232239264138e-06,4.6030033719454026e-06,1.1219333702301674e-05,1.7201017973921068e-05,9.254020611145044e-06,0.21002884600000016
5.607173077,3.105836270403548e-06,7.719793329707693e-06,4.600914334794678e-06,1.1223993378555772e-05,1.7225157673136597e-05,9.258499352738087e-06,0.21054807699999945
5.607692308,3.1074965728644706e-06,7.631527021455053e-06,4.596564165483664e-06,1.1240679164937969e-05,1.7219166106538808e-05,9.272503484385194e-06,0.21106730799999962
5.608211538,3.1045382229184726e-06,7.555436032839048e-06,4.602185228126816e-06,1.126339182553285e-05,1.739851743807913e-05,9.291798874043936e-06,0.2115865379999997
5.608730769,3.096738392102325e-06,7.497939016934985e-06,4.617968843815055e-06,1.1282816783414808e-05,1.7588477823326013e-05,9.306909047081552e-06,0.2121057689999999
5.60925,3.085143863649881e-06,7.454291891084317e-06,4.636382297210302e-06,1.1295744462291653e-05,1.7588385642840796e-05,9.30854303908928e-06,0.21262500000000006
5.609769231,3.0723079272849777e-06,7.422962039790183e-06,4.648470901336634e-06,1.13051458678003e-05,1.8071211426074927e-05,9.305803143169723e-06,0.21314423099999935
5.610288462,3.062960032953804e-06,7.404761825785984e-06,4.655202818168898e-06,1.1316161057666478e-05,1.9418934925231603e-05,9.342539660232412e-06,0.21366346199999953
5.610807692,3.0576533411242724e-06,7.394965700228185e-06,4.663666807228311e-06,1.133397581201077e-05,2.0815752388676077e-05,9.499562954936556e-06,0.21418269199999962
5.611326923,3.056031712549325e-06,7.386614888078457e-06,4.678771196895939e-06,1.1358772032664718e-05,2.1524335868441023e-05,9.852109217848292e-06,0.2147019229999998
5.611846154,3.0571730112975997e-06,7.377151037129488e-06,4.697935560318918e-06,1.1382247010614862e-05,2.165237791921889e-05,1.0370602600013e-05,0.21522115399999997
5.612365385,3.057711355483155e-06,7.369198049635903e-06,4.710955963412672e-06,1.139772516901067e-05,2.165439416582312e-05,1.0903389804964358e-05,0.21574038500000015
5.612884615,3.0410597402563563e-06,7.365677597756405e-06,4.715101179371876e-06,1.1407315496681534e-05,2.1712733511027384e-05,1.1315416793232042e-05,0.21625961499999935
5.613403846,3.0082502059140283e-06,7.367244638714323e-06,4.715490848501026e-06,1.1415334568515846e-05,2.1754160490831225e-05,1.1578616149293174e-05,0.21677884599999953
5.613923077,2.997844949380769e-06,7.37392548316906e-06,4.715384147447324e-06,1.1421965243478924e-05,2.175272515248623e-05,1.1726991184849904e-05,0.2172980769999997
5.614442308,3.0183457903924078e-06,7.383204783312094e-06,4.715497831846783e-06,1.14213453957577e-05,2.176250132520708e-05,1.1800963141534438e-05,0.21781730799999988
5.614961538,3.034188403663994e-06,7.389696643182195e-06,4.715511355294212e-06,1.1409153393113092e-05,2.181665307175636e-05,1.183291168022738e-05,0.21833653799999997
5.615480769,3.035640906597218e-06,7.390649778709332e-06,4.71503794134328e-06,1.1390060948853275e-05,2.1907805252326013e-05,1.184451331084522e-05,0.21885576900000014
5.616,3.035594721641742e-06,7.388921184122291e-06,4.713611899256912e-06,1.137059912708459e-05,2.200780835880083e-05,1.1845902863086936e-05,0.21937499999999943
5.616519231,3.031945946526112e-06,7.389749177186389e-06,4.713441488501412e-06,1.1352034654689824e-05,2.2084971085033563e-05,1.1841713238833724e-05,0.2198942309999996
5.617038462,3.029808748754144e-06,7.395439832315097e-06,4.71403683021791e-06,1.133256767708245e-05,2.2123051429577165e-05,1.1838825725635676e-05,0.22041346199999978
5.617557692,3.0341854776055035e-06,7.402191069433005e-06,4.710824825415056e-06,1.13134790439276e-05,2.2126718354925987e-05,1.184033114818314e-05,0.22093269199999988
5.618076923,3.050059350402349e-06,7.400386959788343e-06,4.708006921751082e-06,1.1301112805995484e-05,2.2119313865613427e-05,1.1838018601361715e-05,0.22145192300000005
5.618596154,3.0901588653929803e-06,7.374245239072076e-06,4.709821360578827e-06,1.1299666915131325e-05,2.2149515903167623e-05,1.1828608091011909e-05,0.22197115399999934
5.619115385,3.122660645392275e-06,7.3046703808237e-06,4.711833557251571e-06,1.1310101647576148e-05,2.227659889640023e-05,1.1824524358792996e-05,0.2224903849999995
5.619634615,3.122014861908204e-06,7.185763749218324e-06,4.711602641708157e-06,1.13370198203801e-05,2.2524774004408028e-05,1.182935386060276e-05,0.2230096149999996
5.620153846,3.118962033863324e-06,7.038175415575478e-06,4.710941359071912e-06,1.1380237253913048e-05,2.285714530762548e-05,1.1830416265159415e-05,0.22352884599999978
5.620673077,3.1183071354705294e-06,6.891330209429873e-06,4.711164203437806e-06,1.1433242445836055e-05,2.31829219615338e-05,1.182911146207206e-05,0.22404807699999996
5.621192308,3.095657968109992e-06,6.755209525512928e-06,4.71124562609632e-06,1.1500078991104634e-05,2.3407257627932176e-05,1.1831016150143555e-05,0.22456730800000013
5.621711538,3.0661902768463797e-06,6.623866087193522e-06,4.711680303042216e-06,1.158655567860159e-05,2.350471805862031e-05,1.18324174464076e-05,0.22508653799999934
5.622230769,3.0588520171954147e-06,6.502505718209055e-06,4.711909079993658e-06,1.1679486024668997e-05,2.3523652038406512e-05,1.18383658124199e-05,0.2256057689999995
5.62275,3.066559488071952e-06,6.409982982248635e-06,4.712287936255543e-06,1.1751054196297044e-05,2.352118463499899e-05,1.190510634238775e-05,0.2261249999999997
5.623269231,3.0689479756142336e-06,6.357508791198494e-06,4.714968647690939e-06,1.1781934734258984e-05,2.3521868613428736e-05,1.2203729289130496e-05,0.22664423099999986
5.623788462,3.0708622157748267e-06,6.3405726146565936e-06,4.718680460450085e-06,1.1782207427204792e-05,2.352408556233201e-05,1.2792165430663536e-05,0.22716346200000004
5.624307692,3.085429410737189e-06,6.34335398865371e-06,4.722311100311579e-06,1.1781237313846716e-05,2.352425419436969e-05,1.342856210593221e-05,0.22768269200000013
5.624826923,3.0972549407466693e-06,6.351405578135754e-06,4.724980569372115e-06,1.179450861580286e-05,2.3542298011856436e-05,1.3883326908746485e-05,0.22820192299999942
5.625346154,3.0958218067676814e-06,6.362950398787204e-06,4.727386877610178e-06,1.1815528935565231e-05,2.3618356620727343e-05,1.4125572518554904e-05,0.2287211539999996
5.625865385,3.0955147826568197e-06,6.383303559146342e-06,4.72707345906639e-06,1.1834035256075732e-05,2.3750647140049997e-05,1.4211392132179182e-05,0.22924038499999977
5.626384615,3.091491882226222e-06,6.411734351728298e-06,4.72184011147949e-06,1.1844024948298383e-05,2.3856878162171412e-05,1.421326241033953e-05,0.22975961499999986
5.626903846,3.089183685014243e-06,6.4370634622055575e-06,4.720350752461647e-06,1.1840798713826267e-05,2.3877356426207696e-05,1.4203175669667175e-05,0.23027884600000004
5.627423077,3.1101137425903584e-06,6.447954038592993e-06,4.726824986869984e-06,1.18233830821103e-05,2.3883229634685475e-05,1.4202511924614316e-05,0.2307980770000002
5.627942308,3.131456797008985e-06,6.446131344342445e-06,4.736191373016774e-06,1.1796880322676589e-05,2.3966255009259495e-05,1.4194192917946304e-05,0.2313173079999995
5.628461538,3.1347636630936798e-06,6.441798983467475e-06,4.743934116793001e-06,1.1768925447605666e-05,2.408737412627094e-05,1.4177331342677694e-05,0.2318365379999996
5.628980769,3.134557595229014e-06,6.439632123926613e-06,4.748217598449964e-06,1.1744295564487017e-05,2.415969351021716e-05,1.4160311986662152e-05,0.23235576899999977
5.6295,3.1302070105234515e-06,6.439427192698761e-06,4.750745985301199e-06,1.1723946549886416e-05,2.417614398073865e-05,1.4145594776237369e-05,0.23287499999999994
5.630019231,3.127478332341317e-06,6.441426287797986e-06,4.7541616767197566e-06,1.171303259228816e-05,2.417351740692507e-05,1.413352324184951e-05,0.23339423100000012
5.630538462,3.1352799957271022e-06,6.444187901522734e-06,4.760234596256584e-06,1.171881467423858e-05,2.4169575023319394e-05,1.4120119631747315e-05,0.2339134619999994
5.631057692,3.125958038850315e-06,6.445611717790174e-06,4.767674509986273e-06,1.1739464331519712e-05,2.4167721106938906e-05,1.410873281478176e-05,0.2344326919999995
5.631576923,3.095774954845619e-06,6.446268420439708e-06,4.772147194359217e-06,1.177002857806458e-05,2.41683407920292e-05,1.414754603026961e-05,0.23495192299999967
5.632096154,3.081519597737209e-06,6.447488395660286e-06,4.772103518774607e-06,1.1812199776737524e-05,2.417137590319949e-05,1.4283667325654083e-05,0.23547115399999985
5.632615385,3.084947449489102e-06,6.4493050503832e-06,4.769661302009919e-06,1.18689399559261e-05,2.417671273844272e-05,1.4465881711913804e-05,0.23599038500000002
5.633134615,3.093272000129325e-06,6.450249733076424e-06,4.767061537791512e-06,1.1929509490100088e-05,2.4176078072087356e-05,1.4601239340203978e-05,0.23650961500000012
5.633653846,3.107334322993117e-06,6.444907709163415e-06,4.765638960800686e-06,1.1968050703393373e-05,2.4155792817502626e-05,1.466700889906838e-05,0.2370288459999994
5.634173077,3.1118086543021344e-06,6.430189701617697e-06,4.76610389698247e-06,1.197556739139064e-05,2.4130105301918407e-05,1.469547642184209e-05,0.23754807699999958
5.634692308,3.1041684497364478e-06,6.41534119731068e-06,4.768280176415023e-06,1.1975559304248272e-05,2.4129800893386304e-05,1.4714074765507596e-05,0.23806730799999976
5.635211538,3.101255154117639e-06,6.412738179260635e-06,4.771111088789156e-06,1.1985565305830644e-05,2.4100599501537063e-05,1.4732309245514052e-05,0.23858653799999985
5.635730769,3.1010230142746537e-06,6.423218427176707e-06,4.774904823748364e-06,1.199729933497642e-05,2.400534349868364e-05,1.47498241134781e-05,0.23910576900000002
5.63625,3.0993345385551385e-06,6.437606001217741e-06,4.782467866474433e-06,1.2002853723493698e-05,2.397700133350368e-05,1.4762437115103676e-05,0.2396250000000002
5.636769231,3.1016471041503084e-06,6.445303563422961e-06,4.796567022009629e-06,1.2005431333420811e-05,2.403110458926401e-05,1.4767139049234144e-05,0.2401442309999995
5.637288462,3.106465392130946e-06,6.4437962516999525e-06,4.815360293628612e-06,1.2008569522407684e-05,2.398639707596508e-05,1.4765298529344428e-05,0.24066346199999966
5.637807692,3.1131375070731694e-06,6.4452886388898585e-06,4.834225988182354e-06,1.2004025698889111e-05,2.3859708999114704e-05,1.4763461326549916e-05,0.24118269199999975
5.638326923,3.1236366390801146e-06,6.458201033195966e-06,4.852174813843096e-06,1.196377204386876e-05,2.384033113820787e-05,1.47708472616618e-05,0.24170192299999993
5.638846154,3.138223996092549e-06,6.47056067794471e-06,4.870870633739101e-06,1.1864156282591167e-05,2.396766390803026e-05,1.4792420160617288e-05,0.2422211540000001
5.639365385,3.1565128300375997e-06,6.474026511166184e-06,4.8882108996172895e-06,1.1732856727960691e-05,2.4151706403220837e-05,1.48234480422601e-05,0.2427403849999994
5.639884615,3.1680399838056138e-06,6.475400906861257e-06,4.898466732592803e-06,1.1637028576418584e-05,2.4323804983077088e-05,1.4855215277403862e-05,0.24325961499999949
5.640403846,3.1667359372107028e-06,6.48259297510104e-06,4.901290288639826e-06,1.1605341683391375e-05,2.446017409035845e-05,1.4886956495412638e-05,0.24377884599999966
5.640923077,3.1654392485352302e-06,6.49796616507466e-06,4.901487352169566e-06,1.1607498827255209e-05,2.456176912926744e-05,1.4930101616441796e-05,0.24429807699999984
5.641442308,3.167651309150762e-06,6.5075397286578906e-06,4.901562857664643e-06,1.1611271534505804e-05,2.463618620808028e-05,1.500208167204771e-05,0.244817308
5.641961538,3.167622426859724e-06,6.498098573010683e-06,4.902230717213223e-06,1.1611037347105253e-05,2.468965252743958e-05,1.5097116889950072e-05,0.2453365380000001
5.642480769,3.167852594329231e-06,6.481823440234201e-06,4.9030359226797846e-06,1.1613454650532365e-05,2.472636910903142e-05,1.51644330627912e-05,0.2458557689999994
5.643,3.1630748104142234e-06,6.468820171351336e-06,4.903064229070222e-06,1.1618584251457448e-05,2.474886429987761e-05,1.517856669898159e-05,0.24637499999999957
5.643519231,3.153648158326498e-06,6.450794517395344e-06,4.907075025600966e-06,1.1606576829464314e-05,2.476128095519033e-05,1.5176360798954928e-05,0.24689423099999974
5.644038462,3.152523272342579e-06,6.427728788542395e-06,4.917207686773666e-06,1.1528357798442132e-05,2.4769412303291497e-05,1.5174845587326798e-05,0.24741346199999992
5.644557692,3.15676273491364e-06,6.415525091670743e-06,4.923822968103651e-06,1.1343960465210324e-05,2.477661493525757e-05,1.520230587407878e-05,0.247932692
5.645076923,3.161651010524496e-06,6.424710677290331e-06,4.924128374088805e-06,1.111375705627649e-05,2.4781534438357324e-05,1.5275420296567872e-05,0.24845192300000019
5.645596154,3.1634138556954183e-06,6.445960248202517e-06,4.924321598435676e-06,1.0957022694237808e-05,2.4782599014601706e-05,1.5299806487894903e-05,0.24897115399999947
5.646115385,3.156085722867961e-06,6.461876852297581e-06,4.9240437985190445e-06,1.0897536721345484e-05,2.4782299817084036e-05,1.529302013265389e-05,0.24949038499999965
5.646634615,3.152448710501643e-06,6.467331869854063e-06,4.92459260389201e-06,1.0879920174588636e-05,2.4787091043577383e-05,1.5396227998744067e-05,0.25000961499999974
5.647153846,3.154739804113767e-06,6.4680902664883086e-06,4.928884117704158e-06,1.0876857650563004e-05,2.483921258039437e-05,1.5553312318250246e-05,0.2505288459999999
5.647673077,3.1530032830381625e-06,6.470933861843557e-06,4.934622098319221e-06,1.0882705367994354e-05,2.507961479192893e-05,1.562868803497357e-05,0.2510480770000001
5.648192308,3.158234123432529e-06,6.479872460294662e-06,4.94247431559212e-06,1.0878345338288124e-05,2.561376364418547e-05,1.563191130507068e-05,0.2515673079999994
5.648711538,3.172793454641174e-06,6.490621285406791e-06,4.957267616879064e-06,1.0850348029306869e-05,2.6207573699817427e-05,1.5615759492301778e-05,0.25208653799999947
5.649230769,3.178394408050532e-06,6.496109582941105e-06,4.979549919609921e-06,1.081138692460772e-05,2.6523181706333265e-05,1.5599353590437394e-05,0.25260576899999965
5.64975,3.1734828633158827e-06,6.497777834807956e-06,4.998879224000238e-06,1.0781420434822118e-05,2.6594181511712958e-05,1.5590986662946564e-05,0.2531249999999998
5.650269231,3.174644611002149e-06,6.501011439424667e-06,5.004975282003257e-06,1.0769993915929809e-05,2.6606384347744544e-05,1.5587901301687443e-05,0.253644231
5.650788462,3.176018576103204e-06,6.506274032541042e-06,5.001794383275797e-06,1.0784511313209038e-05,2.6641286576043228e-05,1.5585539076032586e-05,0.2541634620000002
5.651307692,3.1788349266442823e-06,6.510136381840601e-06,4.996231273456974e-06,1.0838731133019502e-05,2.680664210589622e-05,1.5587271314191066e-05,0.2546826919999994
5.651826923,3.204914323393297e-06,6.511024647972752e-06,4.989862614006615e-06,1.0938263510999018e-05,2.7123090234708995e-05,1.5592862853809764e-05,0.25520192299999955
5.652346154,3.2312839918193662e-06,6.510876257150226e-06,4.983479545692594e-06,1.1053502763469314e-05,2.7436187882122925e-05,1.5595825774064944e-05,0.25572115399999973
5.652865385,3.236733456245369e-06,6.511097233570986e-06,4.974876011359504e-06,1.1132799043418208e-05,2.7615896678127283e-05,1.5594795809808602e-05,0.2562403849999999
5.653384615,3.235551880386247e-06,6.511426920546589e-06,4.960897840868464e-06,1.1157088997165725e-05,2.7662333288768363e-05,1.559436823758189e-05,0.256759615
5.653903846,3.235927583071528e-06,6.511694514633248e-06,4.944001343262227e-06,1.115160780627999e-05,2.7661812114094717e-05,1.5596824610922474e-05,0.25727884600000017
5.654423077,3.2493368429023704e-06,6.511614080977142e-06,4.9296900269137305e-06,1.1142130655117548e-05,2.7726961875915487e-05,1.559843606665145e-05,0.25779807699999946
5.654942308,3.271871018958721e-06,6.5110135013049104e-06,4.920130421166749e-06,1.1137437213658952e-05,2.7907217913323707e-05,1.5591598343236987e-05,0.25831730799999963
5.655461538,3.281077389770581e-06,6.508938681228417e-06,4.914308975403935e-06,1.1139988716825308e-05,2.8119454454913185e-05,1.557448843216207e-05,0.2588365379999997
5.655980769,3.2804814259391906e-06,6.499326565409576e-06,4.910468233921511e-06,1.11653875186663e-05,2.824414214471981e-05,1.5552989684198637e-05,0.2593557689999999
5.6565,3.282211257635393e-06,6.470481104009666e-06,4.906354095681959e-06,1.1276127500548182e-05,2.8272173643887422e-05,1.553074896834306e-05,0.2598750000000001
5.657019231,3.281706337819849e-06,6.420928662214253e-06,4.900750597097238e-06,1.1528343296491292e-05,2.827214417006542e-05,1.5507125690998966e-05,0.26039423099999937
5.657538462,3.2701546375780184e-06,6.369654296749471e-06,4.894623631067872e-06,1.18668680466662e-05,2.827776015563555e-05,1.5486423796535273e-05,0.26091346199999954
5.658057692,3.2503425383625453e-06,6.334682714659724e-06,4.892603099143923e-06,1.216184491256201e-05,2.828125330498198e-05,1.547655829597432e-05,0.26143269199999963
5.658576923,3.2513075256258004e-06,6.315141857070498e-06,4.898941041820444e-06,1.2330763741191889e-05,2.828090660550652e-05,1.547385583105362e-05,0.2619519229999998
5.659096154,3.2790142566573902e-06,6.297142548529111e-06,4.908790650108609e-06,1.2380431328874647e-05,2.82911177267881e-05,1.547227246037603e-05,0.262471154
5.659615385,3.291647630100963e-06,6.261429128448204e-06,4.915388994331215e-06,1.2371099982668036e-05,2.8322328058153065e-05,1.5475489891462147e-05,0.26299038500000016
5.660134615,3.286263895798143e-06,6.198078581725628e-06,4.918386396812773e-06,1.2359654056668412e-05,2.8362472180725116e-05,1.5497713035533155e-05,0.26350961499999936
5.660653846,3.2926596572367863e-06,6.126541238273376e-06,4.919890510659243e-06,1.2350945299330736e-05,2.8387742580812068e-05,1.5538303140232283e-05,0.26402884599999954
5.661173077,3.3012640556541485e-06,6.079012424602737e-06,4.921300840847024e-06,1.2311192897123257e-05,2.839342097491109e-05,1.5555026287653036e-05,0.2645480769999997
5.661692308,3.299967516912898e-06,6.0585934008640216e-06,4.921452593720682e-06,1.2229050706404368e-05,2.8392372935651655e-05,1.555561154330977e-05,0.2650673079999999
5.662211538,3.2991491755909208e-06,6.04531620643497e-06,4.919568395150885e-06,1.212294830084156e-05,2.839177907162777e-05,1.558715322977589e-05,0.265586538
5.662730769,3.298952460088501e-06,6.027455339562297e-06,4.91626760263098e-06,1.2005794811395337e-05,2.8394511982990803e-05,1.561589467600026e-05,0.26610576900000016
5.66325,3.30030924340999e-06,6.006437479448065e-06,4.909703975973235e-06,1.188094968368938e-05,2.8404882109590543e-05,1.5617111791541434e-05,0.26662499999999945
5.663769231,3.3048958035619924e-06,5.994241152292833e-06,4.89387709721573e-06,1.1754620821932665e-05,2.8421685014572384e-05,1.562124387620244e-05,0.2671442309999996
5.664288462,3.3026160735382582e-06,6.001174650470421e-06,4.862525130652879e-06,1.1636238923550091e-05,2.8438780834902204e-05,1.5627657678702864e-05,0.2676634619999998
5.664807692,3.3041736844680843e-06,6.024806108620403e-06,4.817448728463491e-06,1.153435156905665e-05,2.8452190979656038e-05,1.5626500130078186e-05,0.2681826919999999
5.665326923,3.3088194813051587e-06,6.060427004366444e-06,4.7655712668834455e-06,1.1452797294459744e-05,2.846243673104136e-05,1.5627469820380084e-05,0.26870192300000006
5.665846154,3.3023200174998848e-06,6.110090521305704e-06,4.709410093852937e-06,1.13886756344383e-05,2.847175956508712e-05,1.5634735741291943e-05,0.26922115399999935
5.666365385,3.314972157655345e-06,6.175672434219586e-06,4.648555296756682e-06,1.133542149655078e-05,2.84797949385371e-05,1.5642906597134e-05,0.2697403849999995
5.666884615,3.350069473721036e-06,6.246345136422361e-06,4.587990405157857e-06,1.1287402070903227e-05,2.848346884540115e-05,1.5647648567924956e-05,0.2702596149999996
5.667403846,3.3696736116517785e-06,6.300952612833325e-06,4.537287065372699e-06,1.1242360350842166e-05,2.848262230748403e-05,1.564847439395033e-05,0.2707788459999998
5.667923077,3.3725102369213344e-06,6.3287553381209045e-06,4.498994381637183e-06,1.1202310837643213e-05,2.848036764268569e-05,1.5645480803239802e-05,0.27129807699999997
5.668442308,3.3659032736586445e-06,6.337627736785497e-06,4.468175605475103e-06,1.117071979077044e-05,2.8479603922987556e-05,1.563847568491065e-05,0.27181730800000015
5.668961538,3.3542675924793707e-06,6.33928746752209e-06,4.441881418484335e-06,1.1147723850061222e-05,2.849057061584817e-05,1.5630470528881677e-05,0.27233653799999935
5.669480769,3.3583175091845727e-06,6.337172756209556e-06,4.4219509325244985e-06,1.1131101288714157e-05,2.8527223284403407e-05,1.562585723305635e-05,0.2728557689999995
5.67,3.3719710015940117e-06,6.327598156351945e-06,4.410520273775304e-06,1.1119789245766543e-05,2.857417892569019e-05,1.562569455726434e-05,0.2733749999999997
5.670519231,3.3765818907463734e-06,6.30426268905735e-06,4.40567206135146e-06,1.1113726787815056e-05,2.858679079459159e-05,1.5631346098347017e-05,0.2738942309999999
5.671038462,3.376019243877476e-06,6.264419494533278e-06,4.404637949596649e-06,1.1113455420595906e-05,2.8575963146008576e-05,1.564719247456272e-05,0.27441346200000005
5.671557692,3.372804402701283e-06,6.216462498337151e-06,4.408958928952167e-06,1.1119980345584318e-05,2.861374992174665e-05,1.56676488484661e-05,0.27493269200000015
5.672076923,3.3720416183020685e-06,6.172725770992301e-06,4.421615198000442e-06,1.1132656641638944e-05,2.8663738089365197e-05,1.5674422711896742e-05,0.27545192299999943
5.672596154,3.367435327042908e-06,6.133862828518324e-06,4.436709885354238e-06,1.1146084472615727e-05,2.8659425122425203e-05,1.5667642981671518e-05,0.2759711539999996
5.673115385,3.345151723653569e-06,6.088295888291367e-06,4.441652204985092e-06,1.1153720730530324e-05,2.8768314288793917e-05,1.5660096263123906e-05,0.2764903849999998
5.673634615,3.325540657955885e-06,6.022041207805047e-06,4.433769761686909e-06,1.115566276797195e-05,2.9076411489271192e-05,1.5658534066580593e-05,0.2770096149999999
5.674153846,3.321413917120618e-06,5.932109678002681e-06,4.419382335262802e-06,1.115478012918614e-05,2.9300533366559968e-05,1.5706409144887246e-05,0.27752884600000005
5.674673077,3.321335733491232e-06,5.835445520042682e-06,4.397068523020962e-06,1.115186135052533e-05,2.932319480951716e-05,1.581954070825732e-05,0.27804807699999934
5.675192308,3.320026214060082e-06,5.756590311889576e-06,4.3590342008981375e-06,1.1149577252027269e-05,2.934834136269749e-05,1.5910804304120706e-05,0.2785673079999995
5.675711538,3.309288087535953e-06,5.706358704564399e-06,4.304852088033137e-06,1.1149568212013576e-05,2.94043216158388e-05,1.5928616461279878e-05,0.2790865379999996
5.676230769,3.2882117292248053e-06,5.67875266200245e-06,4.241220174555093e-06,1.11492028563684e-05,2.940943206807798e-05,1.591706585587432e-05,0.2796057689999998
5.67675,3.2739888360816646e-06,5.664418449832723e-06,4.177353230434899e-06,1.1148008538197544e-05,2.9420329456472584e-05,1.5906586188078458e-05,0.28012499999999996
5.677269231,3.2720986368233432e-06,5.660219303255297e-06,4.130083532606373e-06,1.1147719814341028e-05,2.945613204977504e-05,1.589667717835541e-05,0.28064423100000013
5.677788462,3.2723722940841805e-06,5.6678437462491e-06,4.116018263102604e-06,1.1145968610866542e-05,2.9473086025146e-05,1.590094218200663e-05,0.2811634619999994
5.678307692,3.2747142771687266e-06,5.684641637867389e-06,4.134150246372167e-06,1.1133112420938166e-05,2.9472986847292386e-05,1.5931481940659012e-05,0.2816826919999995
5.678826923,3.278756152540668e-06,5.700785013457634e-06,4.173729943232105e-06,1.109342418038555e-05,2.9480981490594103e-05,1.5976758449946152e-05,0.2822019229999997
5.679346154,3.278736772216109e-06,5.711074616352829e-06,4.221571541881176e-06,1.102448428835734e-05,2.953040907731448e-05,1.6015682725920982e-05,0.28272115399999986
5.679865385,3.2772452966419296e-06,5.719509611310593e-06,4.251029486290125e-06,1.0951982110139417e-05,2.969072106733271e-05,1.603735898016545e-05,0.28324038500000004
5.680384615,3.2749958327083835e-06,5.733999426047627e-06,4.245660868576138e-06,1.0903822846573289e-05,3.003772753557966e-05,1.6044283081593252e-05,0.28375961500000013
5.680903846,3.269876153979458e-06,5.762405950758123e-06,4.247906383308741e-06,1.08815675947146e-05,3.050991427820811e-05,1.6043638622465035e-05,0.2842788459999994
5.681423077,3.268769798685314e-06,5.80121025177662e-06,4.313649136324882e-06,1.0866222989417488e-05,3.084662945105965e-05,1.6040102637485e-05,0.2847980769999996
5.681942308,3.266944946223175e-06,5.836287913807975e-06,4.413948759621262e-06,1.0840193668359386e-05,3.08931799882814e-05,1.603578427005149e-05,0.28531730799999977
5.682461538,3.262756342254173e-06,5.861055571384611e-06,4.485354144536795e-06,1.0802111099868516e-05,3.0940304697634384e-05,1.603258756707606e-05,0.28583653799999986
5.682980769,3.264292108054384e-06,5.877303520092201e-06,4.522133493802259e-06,1.0760538545878205e-05,3.134963998197574e-05,1.6031903139402144e-05,0.28635576900000004
5.6835,3.2530177857222617e-06,5.88778786122043e-06,4.556174269472563e-06,1.0720205136745864e-05,3.1936557805093965e-05,1.6033718361291774e-05,0.2868750000000002
5.684019231,3.230838389103147e-06,5.897573998574548e-06,4.622028481675799e-06,1.068554076911784e-05,3.228884718637431e-05,1.603867138024346e-05,0.2873942309999995
5.684538462,3.228054892514327e-06,5.909955786922284e-06,4.737233140983379e-06,1.0665931472415735e-05,3.236015673601887e-05,1.6045152088374382e-05,0.2879134619999997
5.685057692,3.2332628652947157e-06,5.923685406330221e-06,4.875401807167208e-06,1.0662444616765142e-05,3.2362839845341674e-05,1.6049710481830437e-05,0.28843269199999977
5.685576923,3.2307607401194845e-06,5.937129901647187e-06,4.9956880343061904e-06,1.0664676892443675e-05,3.245100404096912e-05,1.6056015179710723e-05,0.28895192299999994
5.686096154,3.2319476109787724e-06,5.947628942387938e-06,5.093737325838048e-06,1.0669592359718582e-05,3.265282616865423e-05,1.6057720715798763e-05,0.2894711540000001
5.686615385,3.2304955409345663e-06,5.949951519325173e-06,5.195855102822943e-06,1.068344391579518e-05,3.288377027983108e-05,1.6037295345959802e-05,0.2899903849999994
5.687134615,3.22350407480902e-06,5.944466047235135e-06,5.329190039902402e-06,1.0701492270116344e-05,3.300481713943829e-05,1.6003318996597697e-05,0.2905096149999995
5.687653846,3.223069347515219e-06,5.93959249054899e-06,5.494573711648812e-06,1.070499114053655e-05,3.3009825308181044e-05,1.5976260687938827e-05,0.2910288459999997
5.688173077,3.222248787849216e-06,5.938902549116436e-06,5.66194705209602e-06,1.0682188094978077e-05,3.303928679449244e-05,1.5957435881550265e-05,0.29154807699999985
5.688692308,3.212855840943009e-06,5.937871017884368e-06,5.801998191652291e-06,1.063762469768766e-05,3.3083460826212884e-05,1.5934465250016373e-05,0.292067308
5.689211538,3.2047854959152308e-06,5.930604876629684e-06,5.908605656533681e-06,1.058182032967484e-05,3.309235807753668e-05,1.590059496676423e-05,0.2925865380000001
5.689730769,3.204325923305673e-06,5.910842456286702e-06,5.994702527068275e-06,1.052698002969255e-05,3.349392829465091e-05,1.587541840701667e-05,0.2931057689999994
5.69025,3.2054931925463616e-06,5.877350847734928e-06,6.073610373847008e-06,1.0488424685174275e-05,3.4604687674012775e-05,1.5878919953915298e-05,0.2936249999999996
5.690769231,3.2054730004542764e-06,5.8381260005486295e-06,6.147834005329068e-06,1.0473089086975343e-05,3.560494036269743e-05,1.590307512787237e-05,0.29414423099999976
5.691288462,3.204783834963452e-06,5.802876641060178e-06,6.209544253717881e-06,1.047181893943658e-05,3.579641504695084e-05,1.5932781796464558e-05,0.29466346199999993
5.691807692,3.2033261837341617e-06,5.776813761981116e-06,6.245174223299078e-06,1.0475935414272498e-05,3.5877655910128886e-05,1.595466185850389e-05,0.295182692
5.692326923,3.201564148707674e-06,5.761064639986676e-06,6.252646523706949e-06,1.049426250165268e-05,3.636387982839215e-05,1.5961543024836884e-05,0.2957019230000002
5.692846154,3.199656652500044e-06,5.754071192663415e-06,6.244759857812257e-06,1.0546440354942706e-05,3.673424172729998e-05,1.596202001194828e-05,0.2962211539999995
5.693365385,3.1992331216193136e-06,5.752608186330237e-06,6.23363811028199e-06,1.0631109567209662e-05,3.679321977261751e-05,1.597148598797735e-05,0.29674038499999966
5.693884615,3.1992771568455195e-06,5.754517968596828e-06,6.226454994587922e-06,1.0718366025353174e-05,3.679741031514714e-05,1.6028560422801955e-05,0.29725961499999976
5.694403846,3.2027193953321737e-06,5.763474058329922e-06,6.2263264276622165e-06,1.07860568469375e-05,3.683084710577465e-05,1.618017840476349e-05,0.29777884599999993
5.694923077,3.2096452857848603e-06,5.790629993470649e-06,6.232439931057283e-06,1.0830714393985855e-05,3.686516101673834e-05,1.6399617364980552e-05,0.2982980770000001
5.695442308,3.200761426213153e-06,5.841630935344811e-06,6.243279255617781e-06,1.0848467455947804e-05,3.689226658487417e-05,1.6593483134508225e-05,0.2988173079999994
5.695961538,3.174664472431054e-06,5.903265353625323e-06,6.262847614642206e-06,1.0830351514844636e-05,3.690569106473573e-05,1.6709033801397593e-05,0.2993365379999995
5.696480769,3.165402784204155e-06,5.960190457430318e-06,6.303123136801696e-06,1.0772732997273236e-05,3.690493044178925e-05,1.6767219111099216e-05,0.29985576899999966
5.697,3.1728964493412445e-06,6.012194036729003e-06,6.374677339028736e-06,1.0683223281058806e-05,3.692225408460384e-05,1.6802910866997716e-05,0.30037499999999984
5.697519231,3.1728504084250266e-06,6.066985466919967e-06,6.471594030435804e-06,1.0586329093255083e-05,3.69813053097856e-05,1.6825311370159998e-05,0.300894231
5.698038462,3.183008275473236e-06,6.131704381946868e-06,6.569238588179903e-06,1.0529037262422975e-05,3.705832547327143e-05,1.682324846561269e-05,0.3014134620000002
5.698557692,3.204418757919708e-06,6.208900906887312e-06,6.645145401813181e-06,1.0525844777474106e-05,3.711779473496408e-05,1.6789520922733492e-05,0.3019326919999994
5.699076923,3.2125458055884e-06,6.299258151855694e-06,6.696167390901113e-06,1.050899629862606e-05,3.714332010000394e-05,1.6752574456654878e-05,0.30245192299999957
5.699596154,3.2134002440838635e-06,6.397568537949505e-06,6.731879066481377e-06,1.0420998134882292e-05,3.7143739339788224e-05,1.6750476776399787e-05,0.30297115399999974
5.700115385,3.215276086133067e-06,6.487797317387657e-06,6.761906682582583e-06,1.030526798885243e-05,3.7148572026036135e-05,1.6781918315256527e-05,0.3034903849999999
5.700634615,3.221606650131378e-06,6.559541505320925e-06,6.791674041502748e-06,1.0238763247709505e-05,3.71682232861222e-05,1.6829469909496264e-05,0.304009615
5.701153846,3.2293408911965976e-06,6.614445395865507e-06,6.823324016912063e-06,1.0230809469810809e-05,3.717634712331461e-05,1.6877156702989138e-05,0.3045288460000002
5.701673077,3.2303420604886418e-06,6.654102085111857e-06,6.85714883719301e-06,1.0228071006167996e-05,3.7174960442863214e-05,1.690606985094578e-05,0.3050480769999995
5.702192308,3.230515910065735e-06,6.678860466121542e-06,6.891125847645287e-06,1.0195119164428037e-05,3.721043065621289e-05,1.69152742919131e-05,0.30556730799999965
5.702711538,3.229339262262694e-06,6.693162302506307e-06,6.919792943020396e-06,1.0157917980984e-05,3.729098059145252e-05,1.6915788436983043e-05,0.30608653799999974
5.703230769,3.223619849059183e-06,6.702419151740564e-06,6.937981702901879e-06,1.0161036938624044e-05,3.737324167467171e-05,1.6907984648587203e-05,0.3066057689999999
5.70375,3.218401196518678e-06,6.7095545101772845e-06,6.947046512404056e-06,1.0208447518806344e-05,3.7430156879285786e-05,1.6889675284079973e-05,0.3071250000000001
5.704269231,3.215425839511991e-06,6.715953039374203e-06,6.952582370049345e-06,1.0264260328712169e-05,3.74682625931637e-05,1.6875086366283818e-05,0.3076442309999994
5.704788462,3.221754067693768e-06,6.721379666729559e-06,6.957020623287209e-06,1.030177066552744e-05,3.7500361466690506e-05,1.689531173021225e-05,0.30816346199999956
5.705307692,3.2493836185257007e-06,6.722261308403193e-06,6.960711508233822e-06,1.0321879484917832e-05,3.7532549348284384e-05,1.6968092415231505e-05,0.30868269199999965
5.705826923,3.274422491335995e-06,6.716928481927849e-06,6.966226178910067e-06,1.032902147524755e-05,3.7567514710002445e-05,1.707007502839189e-05,0.3092019229999998
5.706346154,3.272776420552417e-06,6.720227555461479e-06,6.974326138908878e-06,1.032668719381439e-05,3.7609941651765255e-05,1.7158391688301616e-05,0.309721154
5.706865385,3.270089897577357e-06,6.762329855178678e-06,6.982531374590856e-06,1.0324051900719934e-05,3.7656691539037866e-05,1.7238054328364995e-05,0.3102403850000002
5.707384615,3.275557774095009e-06,6.857374912119453e-06,6.987223893815404e-06,1.0327602220025392e-05,3.768209407616354e-05,1.735785138129118e-05,0.3107596149999994
5.707903846,3.281299863178337e-06,6.982460151358384e-06,6.987585847553665e-06,1.03332545382873e-05,3.767350040378519e-05,1.7473769613269764e-05,0.31127884599999955
5.708423077,3.290896495263771e-06,7.107621263036458e-06,6.987688370091554e-06,1.0327553465395675e-05,3.7672602732686496e-05,1.749112522242622e-05,0.31179807699999973
5.708942308,3.288088005340897e-06,7.230298859532405e-06,6.985778852295339e-06,1.0303860443464046e-05,3.771053548985872e-05,1.7464421204056714e-05,0.3123173079999999
5.709461538,3.2920889204130423e-06,7.367408475522255e-06,6.978760803246526e-06,1.0276908796165266e-05,3.7757931465204e-05,1.750716201794036e-05,0.312836538
5.709980769,3.342729047677565e-06,7.523301768022482e-06,6.9726993214952345e-06,1.0264444714459833e-05,3.7790210336655966e-05,1.7596962028609653e-05,0.3133557690000002
5.7105,3.409278347254669e-06,7.668768886625606e-06,6.97114697344982e-06,1.0268072852556132e-05,3.781865888619496e-05,1.766374410170921e-05,0.31387499999999946
5.711019231,3.449836573577528e-06,7.770593583503051e-06,6.970865922692896e-06,1.0285572237394516e-05,3.786830079159777e-05,1.7719956494932867e-05,0.31439423099999964
5.711538462,3.467883967472645e-06,7.828893958175989e-06,6.969979200220818e-06,1.0313226187978906e-05,3.7952011563515565e-05,1.779060510262178e-05,0.3149134619999998
5.712057692,3.4829723678362826e-06,7.864208249188952e-06,6.969094847517704e-06,1.0338766538981398e-05,3.80281726059803e-05,1.7843087193683878e-05,0.3154326919999999
5.712576923,3.5164526481448417e-06,7.892701328610648e-06,6.971192381302252e-06,1.0354142988554798e-05,3.803986610835768e-05,1.7851906258235755e-05,0.3159519230000001
5.713096154,3.5628236270030902e-06,7.919569309217736e-06,6.980460452827083e-06,1.0360854997897305e-05,3.799362610024922e-05,1.784107935020003e-05,0.31647115399999937
5.713615385,3.5852808955275275e-06,7.941645654360167e-06,6.99765019150406e-06,1.036099217847596e-05,3.7930630478470665e-05,1.783683685329663e-05,0.31699038499999954
5.714134615,3.574046402674988e-06,7.95624290166644e-06,7.0189600479157e-06,1.0356440671609126e-05,3.787177530478788e-05,1.784427185888536e-05,0.31750961499999963
5.714653846,3.554557517183789e-06,7.966702667139617e-06,7.04065958705396e-06,1.035307983054547e-05,3.782645804538407e-05,1.7865974007318456e-05,0.3180288459999998
5.715173077,3.5419517243519663e-06,7.978277880393687e-06,7.061416677789709e-06,1.0359264461152222e-05,3.780096666093943e-05,1.790252823061465e-05,0.318548077
5.715692308,3.533495688892618e-06,7.993137792373644e-06,7.076734640628933e-06,1.0377950411164202e-05,3.7790714328495297e-05,1.7945703591328074e-05,0.31906730800000016
5.716211538,3.524727977185749e-06,8.010382868791775e-06,7.081701876361686e-06,1.0397660079909818e-05,3.778730688399492e-05,1.798385302305231e-05,0.31958653799999936
5.716730769,3.516435042621348e-06,8.028752235076871e-06,7.077850147159077e-06,1.0400118871001432e-05,3.7786269998417965e-05,1.8008462727137332e-05,0.32010576899999954
5.71725,3.514351378792021e-06,8.047591099580391e-06,7.068307385818463e-06,1.0386238274729756e-05,3.778606962336465e-05,1.8018847422868212e-05,0.3206249999999997
5.717769231,3.52029172150706e-06,8.066747476355651e-06,7.052268895127733e-06,1.0373457674910506e-05,3.778628492607783e-05,1.8023308455688112e-05,0.3211442309999999
5.718288462,3.526369081798549e-06,8.085060414161204e-06,7.028332245564058e-06,1.0365243679390778e-05,3.778613198059007e-05,1.803086185104733e-05,0.32166346200000007
5.718807692,3.52516838108346e-06,8.09850533284718e-06,7.005533338757315e-06,1.0358147323603064e-05,3.7782329458819816e-05,1.803739622267887e-05,0.32218269200000016
5.719326923,3.5164237228237787e-06,8.104081129078608e-06,6.996108787745357e-06,1.0358934803538036e-05,3.777437374687106e-05,1.8027748279020545e-05,0.32270192299999945
5.719846154,3.502195780046153e-06,8.103258698092042e-06,6.9960700284553776e-06,1.0368550799255946e-05,3.776549811551665e-05,1.8002137138885e-05,0.3232211539999996
5.720365385,3.4920261402162705e-06,8.09984227185109e-06,6.995119372414315e-06,1.0376555291523304e-05,3.775563772498733e-05,1.7977055581390755e-05,0.3237403849999998
5.720884615,3.490296951799284e-06,8.09677150977018e-06,6.986673475980222e-06,1.0374549033594602e-05,3.7744331661773054e-05,1.7955227569926672e-05,0.3242596149999999
5.721403846,3.4922452387294726e-06,8.09482946594897e-06,6.963801347141442e-06,1.03678212052973e-05,3.773922644224268e-05,1.7931711589860283e-05,0.32477884600000007
5.721923077,3.520397353880476e-06,8.093015087907864e-06,6.932503018917994e-06,1.0367578170415264e-05,3.773779708286127e-05,1.7910531459045917e-05,0.32529807699999935
5.722442308,3.604191192815262e-06,8.088468317982716e-06,6.90917207764646e-06,1.0368676108120915e-05,3.7706135195997593e-05,1.7891537609478384e-05,0.32581730799999953
5.722961538,3.718233874513604e-06,8.08163237812058e-06,6.897531604478785e-06,1.03653892403132e-05,3.764825652883095e-05,1.787419653066717e-05,0.3263365379999996
5.723480769,3.804451476713605e-06,8.084482128138397e-06,6.890592693049806e-06,1.0366161352545335e-05,3.762093149544073e-05,1.7866496663483694e-05,0.3268557689999998
5.724,3.841153318714359e-06,8.113165613362144e-06,6.8851044964361895e-06,1.0366441997714584e-05,3.762000943461483e-05,1.7865507130071968e-05,0.32737499999999997
5.724519231,3.853304419695249e-06,8.167400870536616e-06,6.882548603404903e-06,1.0359638596881537e-05,3.761993635814699e-05,1.786188887800709e-05,0.32789423100000015
5.725038462,3.860842257501695e-06,8.226205637595951e-06,6.883067735758368e-06,1.035787394651263e-05,3.757413296506152e-05,1.7857994256507456e-05,0.32841346199999943
5.725557692,3.8752422955951545e-06,8.269333926366462e-06,6.887023215878933e-06,1.0364313042488086e-05,3.725531278832229e-05,1.7857055552361223e-05,0.3289326919999995
5.726076923,3.9366676231188335e-06,8.293543628042976e-06,6.9005022419909305e-06,1.0372735651949996e-05,3.654459338034208e-05,1.7872649882101876e-05,0.3294519229999997
5.726596154,4.073359530060328e-06,8.305141561127349e-06,6.930300742153011e-06,1.03866580856945e-05,3.581358013670817e-05,1.791783460639133e-05,0.3299711539999999
5.727115385,4.286114409266858e-06,8.313343599885059e-06,6.976179491077501e-06,1.0409567161681016e-05,3.5480122366428655e-05,1.796587157294253e-05,0.33049038500000005
5.727634615,4.559258624988551e-06,8.328845753774312e-06,7.037156841141041e-06,1.0436072809811582e-05,3.5452986032090354e-05,1.7988190125983494e-05,0.33100961500000015
5.728153846,4.817520804855029e-06,8.351668489874475e-06,7.122426605976389e-06,1.0454770833395617e-05,3.544121399008573e-05,1.7992763759291065e-05,0.33152884599999943
5.728673077,4.981694058869141e-06,8.372519113010887e-06,7.249419341154861e-06,1.045977476933181e-05,3.537975853818911e-05,1.8000270052945955e-05,0.3320480769999996
5.729192308,5.0464684671292e-06,8.390174056079434e-06,7.420650374204943e-06,1.0457965446112104e-05,3.533919625269432e-05,1.8031856658341903e-05,0.3325673079999998
5.729711538,5.049772195780031e-06,8.411984586423643e-06,7.610672449088224e-06,1.0459685008435398e-05,3.5336595499685176e-05,1.8101871804856704e-05,0.3330865379999999
5.730230769,5.0456201760702825e-06,8.44356797967788e-06,7.79841682160186e-06,1.047070159211669e-05,3.533876861249958e-05,1.8200920126040924e-05,0.33360576900000005
5.73075,5.089134281780509e-06,8.483892070187852e-06,7.986157066654328e-06,1.0498783594026576e-05,3.533812003499149e-05,1.8301185534966737e-05,0.33412499999999934
5.731269231,5.190910585629259e-06,8.526291372330016e-06,8.172844108723526e-06,1.0548254663988808e-05,3.533647852573085e-05,1.8376414214939192e-05,0.3346442309999995
5.731788462,5.317395661466453e-06,8.563682997229234e-06,8.330912486287098e-06,1.0599047322138622e-05,3.5307624955242185e-05,1.8414734000649967e-05,0.3351634619999997
5.732307692,5.433881943181684e-06,8.591240212723571e-06,8.430112625755287e-06,1.0622145028661985e-05,3.528575906906462e-05,1.842115496401967e-05,0.3356826919999998
5.732826923,5.530044802081529e-06,8.606443580025725e-06,8.474265064118707e-06,1.0612983153366035e-05,3.52843418878572e-05,1.840973414017412e-05,0.33620192299999996
5.733346154,5.611652408091291e-06,8.61176297546245e-06,8.48901287090876e-06,1.058823126384115e-05,3.51956619741341e-05,1.839367352873781e-05,0.33672115400000013
5.733865385,5.679058370327773e-06,8.615889626747443e-06,8.491520700085536e-06,1.0564628509694433e-05,3.5101375640150226e-05,1.8382422983599807e-05,0.3372403849999994
5.734384615,5.727700095434263e-06,8.628108552524169e-06,8.490744353221852e-06,1.054859479173596e-05,3.510237352458744e-05,1.838046297603722e-05,0.3377596149999995
5.734903846,5.753937937339975e-06,8.651899928586563e-06,8.49231442053401e-06,1.0537396367756389e-05,3.4858129977976675e-05,1.8381503603259066e-05,0.3382788459999997
5.735423077,5.762525025178369e-06,8.68448168808826e-06,8.490914466635674e-06,1.0524816637227564e-05,3.4128376180703425e-05,1.836296951690224e-05,0.33879807699999986
5.735942308,5.765087766391176e-06,8.720235547966914e-06,8.485572741593846e-06,1.050520000375683e-05,3.329788167236567e-05,1.8286627741107587e-05,0.33931730800000004
5.736461538,5.768146663853062e-06,8.753238042741035e-06,8.495930654145374e-06,1.0478634647315932e-05,3.2847491001148e-05,1.81163293982818e-05,0.33983653800000013
5.736980769,5.7738728457966815e-06,8.778423898259365e-06,8.53730559827567e-06,1.0453425021066318e-05,3.276689777692893e-05,1.7854666627952806e-05,0.3403557689999994
5.7375,5.777488793120611e-06,8.793174195909425e-06,8.599693836986018e-06,1.043656035430191e-05,3.276918533999385e-05,1.7556436050654686e-05,0.3408749999999996
5.738019231,5.775515074285359e-06,8.798266236339023e-06,8.669520221713171e-06,1.0427114549504992e-05,3.2731547711495565e-05,1.729434614988796e-05,0.34139423099999977
5.738538462,5.775298440761985e-06,8.796319231705317e-06,8.752765743837186e-06,1.0420529790541197e-05,3.270118125194604e-05,1.712188783326279e-05,0.34191346199999995
5.739057692,5.7746144521473e-06,8.790908690779342e-06,8.86637421174065e-06,1.041283948019638e-05,3.269926080219583e-05,1.7054428329769775e-05,0.34243269200000004
5.739576923,5.764536847448272e-06,8.788343719979258e-06,9.004677669298182e-06,1.0405517470260407e-05,3.2694294349733114e-05,1.7059348383853206e-05,0.3429519230000002
5.740096154,5.754448465494747e-06,8.794551498904117e-06,9.12570239706314e-06,1.0403403605280206e-05,3.266355955785737e-05,1.707800570611741e-05,0.3434711539999995
5.740615385,5.753045743445869e-06,8.808613030720648e-06,9.199205164803232e-06,1.040789073397148e-05,3.2606131491954667e-05,1.707845690721843e-05,0.3439903849999997
5.741134615,5.752808777689967e-06,8.824759483905615e-06,9.238463472646004e-06,1.0418255524324414e-05,3.25362089146677e-05,1.7074305290310958e-05,0.34450961499999977
5.741653846,5.756068109235431e-06,8.838226906986231e-06,9.26770495319102e-06,1.0433891499234698e-05,3.2478023442174345e-05,1.7078265578801726e-05,0.34502884599999994
5.742173077,5.77259205189174e-06,8.847464391579055e-06,9.29593872762777e-06,1.0453827182340083e-05,3.2447089796752285e-05,1.7077936232058557e-05,0.3455480770000001
5.742692308,5.792796363877139e-06,8.853997186194578e-06,9.31315492925988e-06,1.047888866474986e-05,3.243980783563655e-05,1.7074015687664932e-05,0.3460673079999994
5.743211538,5.790545340456067e-06,8.860537865551382e-06,9.313534927553705e-06,1.0515533169907613e-05,3.243943655937679e-05,1.7078113939041553e-05,0.3465865379999995
5.743730769,5.769007895494026e-06,8.870112686576365e-06,9.318963081653302e-06,1.0574778103397968e-05,3.241482094846438e-05,1.7082443155068167e-05,0.3471057689999997
5.74425,5.768235748820012e-06,8.886818560268793e-06,9.338121440543817e-06,1.065382403314578e-05,3.2326502028502525e-05,1.7079715553838794e-05,0.34762499999999985
5.744769231,5.789528076032266e-06,8.913816302877055e-06,9.35235874752486e-06,1.0709691544191696e-05,3.215404272051588e-05,1.707537235923436e-05,0.348144231
5.745288462,5.803698772808325e-06,8.948204206741435e-06,9.356753600345572e-06,1.0694012288757336e-05,3.191858730387787e-05,1.7074105965093867e-05,0.3486634620000002
5.745807692,5.811391157983443e-06,8.982548434403517e-06,9.35817631924504e-06,1.0628405847026432e-05,3.1680624044424176e-05,1.707409566249332e-05,0.3491826919999994
5.746326923,5.828742158833075e-06,9.015371601250556e-06,9.359731774976604e-06,1.0575704790775957e-05,3.150697762180801e-05,1.7074432880522656e-05,0.3497019229999996
5.746846154,5.865476964003018e-06,9.053431142745172e-06,9.362202959603098e-06,1.0546579482156528e-05,3.142321755252221e-05,1.7076093969166223e-05,0.35022115399999976
5.747365385,5.899167368012563e-06,9.09909955908904e-06,9.364632896693282e-06,1.0509904839856268e-05,3.140180847416885e-05,1.707378575032685e-05,0.35074038499999993
5.747884615,5.903653572019628e-06,9.141923376390933e-06,9.365859766752976e-06,1.0457212011167728e-05,3.14009309467152e-05,1.702794906289246e-05,0.351259615
5.748403846,5.903960208181454e-06,9.16572355721185e-06,9.366078306861778e-06,1.0403225864388995e-05,3.1399762796683025e-05,1.681438195276783e-05,0.3517788460000002
5.748923077,5.918733725937104e-06,9.163268003627034e-06,9.367018776126364e-06,1.0358042631144676e-05,3.139806025533229e-05,1.6368784652625843e-05,0.3522980769999995
5.749442308,5.923595144703062e-06,9.142689658538052e-06,9.367902302466456e-06,1.0321325647854131e-05,3.1397937069046244e-05,1.584698841773372e-05,0.35281730799999966
5.749961538,5.916399072937147e-06,9.116670526054913e-06,9.366728178103364e-06,1.0292237006336988e-05,3.1384268455673744e-05,1.5445342933940473e-05,0.35333653799999976
5.750480769,5.915161481400044e-06,9.091294911178214e-06,9.365227920825194e-06,1.0277304569419388e-05,3.1326991971421845e-05,1.5218306962596938e-05,0.35385576899999993
5.751,5.9158189893857205e-06,9.067282842634496e-06,9.365336338052637e-06,1.0283049022583867e-05,3.1227551813311405e-05,1.5135400687738563e-05,0.3543750000000001
5.751519231,5.917340199023287e-06,9.04515427327988e-06,9.36559818992449e-06,1.0309367863174303e-05,3.114728951394765e-05,1.5167656366597284e-05,0.3548942309999994
5.752038462,5.927383899957314e-06,9.027184133836234e-06,9.36408086731578e-06,1.0354189441240724e-05,3.1130372909673906e-05,1.5262870972701863e-05,0.35541346199999957
5.752557692,5.939915347488234e-06,9.017026956758925e-06,9.36078188980141e-06,1.0414775416479851e-05,3.1123442365212576e-05,1.5333937565629144e-05,0.35593269199999966
5.753076923,5.949842459401814e-06,9.018079174046977e-06,9.357101123719364e-06,1.0483059767097627e-05,3.1058939678980284e-05,1.5356025248143528e-05,0.35645192299999984
5.753596154,5.959570850741924e-06,9.030283378637208e-06,9.354467470997146e-06,1.0541370382083718e-05,3.0965862628533186e-05,1.5360409302308235e-05,0.356971154
5.754115385,5.9672613711494126e-06,9.047424651601296e-06,9.352981440135738e-06,1.0575658504681716e-05,3.0909876082517605e-05,1.536095349215087e-05,0.3574903850000002
5.754634615,5.976298972623064e-06,9.058549547161436e-06,9.35174579338712e-06,1.0591056232336096e-05,3.0897157181027e-05,1.5368092549096885e-05,0.3580096149999994
5.755153846,5.98864563350234e-06,9.056238185954202e-06,9.34999724741304e-06,1.0595469116985485e-05,3.089767737726054e-05,1.5461645916075427e-05,0.35852884599999957
5.755673077,5.991016986943139e-06,9.044937471101436e-06,9.346901303573264e-06,1.0591962554814408e-05,3.089778280550152e-05,1.572682686159498e-05,0.35904807699999974
5.756192308,5.98291712226881e-06,9.03460948407744e-06,9.343384856125487e-06,1.0586662068780828e-05,3.089805621414246e-05,1.5974588953035802e-05,0.3595673079999999
5.756711538,5.97739432064909e-06,9.028768634123792e-06,9.343281659498242e-06,1.057477351763235e-05,3.089759230741523e-05,1.597502130930468e-05,0.360086538
5.757230769,5.975743073007725e-06,9.028114968772116e-06,9.352166342797683e-06,1.0539851568409968e-05,3.089571840128021e-05,1.5874768587682482e-05,0.3606057690000002
5.75775,5.974292503239176e-06,9.035662899949528e-06,9.379100404325446e-06,1.0475057961241925e-05,3.089423415993866e-05,1.5872427196922493e-05,0.3611249999999995
5.758269231,5.969972203866939e-06,9.048735394968735e-06,9.431485329232193e-06,1.0399209221466398e-05,3.089374961664684e-05,1.5922902517214718e-05,0.36164423099999965
5.758788462,5.964513959453598e-06,9.058971101527188e-06,9.498375767570778e-06,1.035200315406454e-05,3.0893133855505134e-05,1.595483976225528e-05,0.3621634619999998
5.759307692,5.964320440822619e-06,9.062290009451211e-06,9.553771769870496e-06,1.0345899429874822e-05,3.0891819001958584e-05,1.5967781428455534e-05,0.3626826919999999
5.759826923,5.967889145165307e-06,9.058734390993398e-06,9.584521111182565e-06,1.0345173428179509e-05,3.0890537742902105e-05,1.5969037239694695e-05,0.3632019230000001
5.760346154,5.969904070852202e-06,9.048508266059984e-06,9.59720686785024e-06,1.032579034855996e-05,3.088906804197876e-05,1.5958086943401296e-05,0.3637211539999994
5.760865385,5.970027695330683e-06,9.035122942391216e-06,9.601333211160788e-06,1.0302473602527567e-05,3.087726090892745e-05,1.5941441207001766e-05,0.36424038499999956
5.761384615,5.970014276131306e-06,9.026285110951512e-06,9.600436509831608e-06,1.028971111617534e-05,3.08419412558841e-05,1.592921096660392e-05,0.36475961499999965
5.761903846,5.969458240905996e-06,9.028100694801176e-06,9.594477829638504e-06,1.0288298509717572e-05,3.079964392267123e-05,1.5922988545136785e-05,0.3652788459999998
5.762423077,5.970458961728386e-06,9.039216228956704e-06,9.585070032732884e-06,1.0298062741204698e-05,3.078429977935024e-05,1.5921839748579425e-05,0.365798077
5.762942308,5.972778005741628e-06,9.04852848602563e-06,9.57652799805522e-06,1.0317713445447468e-05,3.07843205569235e-05,1.592129477979273e-05,0.3663173080000002
5.763461538,5.9700629343845845e-06,9.047494666319758e-06,9.571257733260473e-06,1.0339319464892476e-05,3.07434354674277e-05,1.591367234238735e-05,0.3668365379999994
5.763980769,5.962023853822333e-06,9.041180524012416e-06,9.56711820485771e-06,1.0350513305482206e-05,3.063508242067243e-05,1.5894784647064635e-05,0.36735576899999955
5.7645,5.950691391136092e-06,9.035625240540728e-06,9.56178630668431e-06,1.0346382648917566e-05,3.0490690283681555e-05,1.5866520540864617e-05,0.36787499999999973
5.765019231,5.943315970646543e-06,9.034106672887115e-06,9.557443688177295e-06,1.033683812371276e-05,3.035477846214784e-05,1.583688146368032e-05,0.3683942309999999
5.765538462,5.95034768173896e-06,9.04243934109141e-06,9.555998689547214e-06,1.033619815530141e-05,3.0252802544944235e-05,1.5808760373850006e-05,0.3689134620000001
5.766057692,5.9656852888836005e-06,9.063878716771304e-06,9.555940873144416e-06,1.034816786848752e-05,3.0191530577917616e-05,1.577014688053684e-05,0.3694326920000002
5.766576923,5.977308671107594e-06,9.104657577853864e-06,9.556009500035791e-06,1.0366258246180888e-05,3.015780438759269e-05,1.570265372278703e-05,0.36995192299999946
5.767096154,5.982246947604875e-06,9.172151276192998e-06,9.555732294297432e-06,1.038264319930313e-05,3.0132153074165724e-05,1.5612060555409654e-05,0.37047115399999964
5.767615385,5.980808720610722e-06,9.267144766798416e-06,9.555451453801696e-06,1.0392310635288688e-05,3.010966519274898e-05,1.554897221172974e-05,0.3709903849999998
5.768134615,5.975181488088793e-06,9.395646078839776e-06,9.556242423705082e-06,1.0398694680251351e-05,3.0094849995945736e-05,1.554135237196661e-05,0.3715096149999999
5.768653846,5.970331459945309e-06,9.561713453367628e-06,9.558360237377316e-06,1.0412310315035716e-05,3.008909059405848e-05,1.555463194799607e-05,0.3720288460000001
5.769173077,5.969011877863624e-06,9.74971920550333e-06,9.564810747858826e-06,1.0433644551799015e-05,3.008971962305296e-05,1.5569243362493067e-05,0.37254807699999937
5.769692308,5.970645064013739e-06,9.937875428873635e-06,9.580708866113562e-06,1.044942796011642e-05,3.0092632855468235e-05,1.5552223581352715e-05,0.37306730799999954
5.770211538,5.974609722252511e-06,1.0109103132612016e-05,9.603098115594028e-06,1.045091345242812e-05,3.009537818070433e-05,1.5482037249207196e-05,0.37358653799999963
5.770730769,5.982887287413608e-06,1.0246450114828246e-05,9.622892092239308e-06,1.0443906895333046e-05,3.0097859015446303e-05,1.544960486570106e-05,0.3741057689999998
5.77125,5.999271114095093e-06,1.0338913309282496e-05,9.635608154686542e-06,1.0439566188905325e-05,3.0099807522125907e-05,1.54436784531387e-05,0.374625
5.771769231,6.020447245859411e-06,1.0391833594126522e-05,9.641420469041567e-06,1.044017956474047e-05,3.009492162140157e-05,1.5331129619683635e-05,0.37514423100000016
5.772288462,6.0363939435831645e-06,1.0422365823376896e-05,9.642390466035864e-06,1.0434587599505837e-05,3.0038442275745635e-05,1.5162042419511568e-05,0.37566346199999945
