Time,Rectus Femoris,Vastus Medialis,Vastus Lateralis,Bicep Femoris,Tibialis,Gastrocnemius Medialis,Activity
0.0,8.95959525432289e-06,2.942018335360208e-06,2.9410219160324017e-06,2.854935862757068e-05,8.562274363340326e-06,2.3569348389655373e-06,Unknown
0.0005192310000001754,8.965971730019785e-06,2.939161697706852e-06,2.922441241199764e-06,2.854506383724507e-05,8.56443942733058e-06,2.354813675663715e-06,Unknown
0.0010384620000003508,8.971649769124772e-06,2.9372241809379383e-06,2.9031151303631063e-06,2.854313470652482e-05,8.565196975337628e-06,2.358134774837293e-06,Unknown
0.0015576919999995553,8.971688921649753e-06,2.941609671239571e-06,2.8869028385091928e-06,2.8542404064067188e-05,8.56887839317912e-06,2.362874227111745e-06,Unknown
0.0020769229999997307,8.972735076708448e-06,2.9467130560426024e-06,2.8740318448613044e-06,2.854264297069821e-05,8.567564715754532e-06,2.361551170612531e-06,Unknown
0.002596153999999906,8.973397151715247e-06,2.9457637088722456e-06,2.861896349868865e-06,2.8543429499680007e-05,8.567746939664022e-06,2.367254032925149e-06,Unknown
0.0031153850000000816,8.968375640444432e-06,2.940800849274495e-06,2.847683138739851e-06,2.854370465639292e-05,8.565957010320105e-06,2.3756644545757355e-06,Unknown
0.0036346150000001742,8.968233010226055e-06,2.9386507013542767e-06,2.8328939307463603e-06,2.8543344049666917e-05,8.563751573780329e-06,2.374543356465605e-06,Unknown
0.00415384600000035,8.975767388596911e-06,2.9383798599298723e-06,2.8223050510858763e-06,2.854275763718454e-05,8.56899801594037e-06,2.3831067250839865e-06,Unknown
0.004673076999999637,8.979873087372524e-06,2.931847158871885e-06,2.8141456867177603e-06,2.854250036678938e-05,8.571015022267674e-06,2.4011723308688425e-06,Unknown
0.005192307999999812,8.977488740650583e-06,2.921040960130969e-06,2.805350285225692e-06,2.8542516940399743e-05,8.571874841576897e-06,2.4045339906508714e-06,Unknown
0.005711537999999905,8.977203144391986e-06,2.916105101103407e-06,2.801198632931309e-06,2.8540955527333016e-05,8.570219357176404e-06,2.3997736407344203e-06,Unknown
0.00623076900000008,8.978966663711363e-06,2.918941166362348e-06,2.8022024567469654e-06,2.8537266535556655e-05,8.549694192730188e-06,2.399527147608081e-06,Unknown
0.006750000000000256,8.951198090117732e-06,2.9271364396887204e-06,2.801984253617783e-06,2.853410992969045e-05,8.530515189883093e-06,2.3979282857633422e-06,Unknown
0.007269230999999543,8.873286157884494e-06,2.941996552876604e-06,2.801834000762536e-06,2.8533041780472693e-05,8.538170296234124e-06,2.395164745342908e-06,Unknown
0.0077884619999997184,8.787496912562761e-06,2.96303549900113e-06,2.8024603850865206e-06,2.8533178062873023e-05,8.556249069710581e-06,2.3946341577485e-06,Unknown
0.008307691999999811,8.743002974275192e-06,2.986208073837152e-06,2.799998757398765e-06,2.8533811234693973e-05,8.56706255935264e-06,2.3940810591578256e-06,Unknown
0.008826922999999987,8.734298379891185e-06,3.00669137412031e-06,2.798974566401998e-06,2.853432108475628e-05,8.572109858190851e-06,2.3939383636169517e-06,Unknown
0.009346154000000162,8.735454639529002e-06,3.020507177879705e-06,2.798260592904474e-06,2.8534425478397772e-05,8.573337866730916e-06,2.3951808389750693e-06,Unknown
0.009865385000000337,8.735947570785209e-06,3.0272658840615388e-06,2.780248338409292e-06,2.853468673329596e-05,8.572886775103798e-06,2.397174050494994e-06,Unknown
0.010384614999999542,8.735749418208126e-06,3.02970661774354e-06,2.738003961004961e-06,2.8534466478627395e-05,8.573209465761013e-06,2.400155969916169e-06,Unknown
0.010903845999999717,8.735780712152458e-06,3.030662305875676e-06,2.6870216392454787e-06,2.853178684290565e-05,8.57336462960598e-06,2.400957259225249e-06,Unknown
0.011423076999999893,8.734401445301597e-06,3.031665086812176e-06,2.648698478897793e-06,2.8526205943253496e-05,8.573939465864548e-06,2.3986406023131946e-06,Unknown
0.011942308000000068,8.731422886056368e-06,3.0355905382993503e-06,2.639878705775017e-06,2.8520976789661283e-05,8.577666230211972e-06,2.400184311546174e-06,Unknown
0.01246153800000016,8.732582213959556e-06,3.04848780410134e-06,2.6586915615270678e-06,2.851986237298453e-05,8.58166967057011e-06,2.408792141474749e-06,Unknown
0.012980769000000336,8.7397780910841e-06,3.0691436120380053e-06,2.6819734994454394e-06,2.8519596360145676e-05,8.581818942710906e-06,2.4198661513962903e-06,Unknown
0.013499999999999623,8.745317965939779e-06,3.0844436328937874e-06,2.693724335428468e-06,2.851438506077471e-05,8.58136732428862e-06,2.4308171946217425e-06,Unknown
0.014019230999999799,8.747640445352116e-06,3.0888605627755693e-06,2.692951505710101e-06,2.8505828964509116e-05,8.581420668573905e-06,2.4436609832628403e-06,Unknown
0.014538461999999974,8.750056499894482e-06,3.086997808942044e-06,2.685449431346873e-06,2.849520588883773e-05,8.583181675911832e-06,2.4592777545217417e-06,Unknown
0.015057692000000067,8.754580678557756e-06,3.08054223589974e-06,2.688663590520913e-06,2.847650632333909e-05,8.587710774063895e-06,2.472131906826135e-06,Unknown
0.015576923000000242,8.759529030311071e-06,3.07596223940186e-06,2.705142820428329e-06,2.8442358037708327e-05,8.579963851874201e-06,2.476075987862588e-06,Unknown
0.01609615399999953,8.757147819917164e-06,3.076008372059663e-06,2.7078571078372488e-06,2.8391486251790487e-05,8.557137484989501e-06,2.475842075911064e-06,Unknown
0.016615384999999705,8.751342047498864e-06,3.0750720366986385e-06,2.693590163567227e-06,2.8334956807426512e-05,8.537439321415148e-06,2.476648474212277e-06,Unknown
0.017134614999999798,8.749825648342828e-06,3.0797850270508014e-06,2.6887339456650127e-06,2.8290775907134663e-05,8.522908098086957e-06,2.476739011447784e-06,Unknown
0.017653845999999973,8.749814901773724e-06,3.089874034751445e-06,2.694400606661804e-06,2.8267882898131966e-05,8.519317824776967e-06,2.4764670653305984e-06,Unknown
0.01817307700000015,8.74945932514944e-06,3.0903130210642597e-06,2.6973016990669007e-06,2.826157542072533e-05,8.538030463398206e-06,2.4765524681792517e-06,Unknown
0.018692308000000324,8.745001627157324e-06,3.0836356778391582e-06,2.696953541714353e-06,2.826226668054726e-05,8.554467988362458e-06,2.477459050442813e-06,Unknown
0.01921153799999953,8.736996234362846e-06,3.079847694756167e-06,2.696243095373888e-06,2.8261170061125686e-05,8.546779938685683e-06,2.480141208422573e-06,Unknown
0.019730768999999704,8.732397046725307e-06,3.079831073692296e-06,2.6963114440255905e-06,2.8249442919868927e-05,8.53326640165453e-06,2.4828537606255567e-06,Unknown
0.02024999999999988,8.731382923735684e-06,3.088463024365668e-06,2.6931752619634257e-06,2.8217861698917716e-05,8.538458085931092e-06,2.484048115196454e-06,Unknown
0.020769231000000055,8.731926084222605e-06,3.1119219217432824e-06,2.6880495898461517e-06,2.8163710674653645e-05,8.579797295571754e-06,2.483896185770584e-06,Unknown
0.02128846200000023,8.734230167229576e-06,3.1453305485138877e-06,2.6907423474888773e-06,2.80967779505344e-05,8.683666286054444e-06,2.4829403075757264e-06,Unknown
0.021807692000000323,8.736115274529484e-06,3.1751522128452486e-06,2.699848992753286e-06,2.8030398382755435e-05,8.866613393571555e-06,2.483600818003594e-06,Unknown
0.02232692299999961,8.730098118259126e-06,3.1925382024807545e-06,2.701899559953973e-06,2.7969275559782047e-05,9.070812798211489e-06,2.48866205216732e-06,Unknown
0.022846153999999785,8.718231198823458e-06,3.20002614931114e-06,2.6926115428365653e-06,2.7910695718228896e-05,9.177729085293644e-06,2.496928019710741e-06,Unknown
0.02336538499999996,8.712293634385275e-06,3.205727732708991e-06,2.6767349043991318e-06,2.785302619540705e-05,9.177484432206269e-06,2.504069378511996e-06,Unknown
0.023884615000000053,8.7133685654724e-06,3.2146349717572936e-06,2.657153559876229e-06,2.780008519795014e-05,9.23100851196962e-06,2.5056703134957097e-06,Unknown
0.02440384600000023,8.714754461469207e-06,3.2271075097302542e-06,2.6425517025578066e-06,2.7758435969962457e-05,9.396140908269612e-06,2.502799821703377e-06,Unknown
0.024923077000000404,8.711618472114244e-06,3.239624453736225e-06,2.6396899331227204e-06,2.7732882195977973e-05,9.48810122533858e-06,2.501944894816397e-06,Unknown
0.02544230799999969,8.712274206221183e-06,3.2465751996189667e-06,2.639931333880398e-06,2.7723799669773984e-05,9.455991937114684e-06,2.5035446331571524e-06,Unknown
0.025961537999999784,8.724406328083847e-06,3.247574883203737e-06,2.638936794126629e-06,2.772440231877368e-05,9.525892854524631e-06,2.501579143946199e-06,Unknown
0.02648076899999996,8.731902639527794e-06,3.2469395091853235e-06,2.643730648160693e-06,2.7722408789794106e-05,9.690579156996263e-06,2.4953858950881245e-06,Unknown
0.027000000000000135,8.727697942827255e-06,3.247015749200449e-06,2.649483048143323e-06,2.7711259581572223e-05,9.61054108432178e-06,2.488177223538697e-06,Unknown
0.02751923100000031,8.72177463575173e-06,3.245536102931428e-06,2.6481099935025644e-06,2.769292837823701e-05,9.234702498626289e-06,2.479986776374068e-06,Unknown
0.028038461999999598,8.713825467796872e-06,3.238079571148074e-06,2.6466409171145674e-06,2.7663846732352747e-05,8.910601287915493e-06,2.471566664730864e-06,Unknown
0.02855769199999969,8.70595432855154e-06,3.2278838154826617e-06,2.6469889070352924e-06,2.7603234919377557e-05,8.82406638183081e-06,2.466834423155454e-06,Unknown
0.029076922999999866,8.703473457836966e-06,3.2217733605031165e-06,2.644558497038848e-06,2.7479028611495117e-05,8.837444433879706e-06,2.472127149367603e-06,Unknown
0.02959615400000004,8.702859212208254e-06,3.219127572006368e-06,2.643249042160061e-06,2.728578170878384e-05,8.828934306701463e-06,2.481003538164196e-06,Unknown
0.030115385000000217,8.697915945012604e-06,3.221738393475462e-06,2.643169281637846e-06,2.7065868802230343e-05,8.78583813024669e-06,2.480208814802967e-06,Unknown
0.03063461500000031,8.668353048983325e-06,3.2330131987048517e-06,2.6467076436729053e-06,2.686301398332776e-05,8.730557399212406e-06,2.477089468951816e-06,Unknown
0.031153845999999596,8.60467066634599e-06,3.241972101116243e-06,2.663390891358389e-06,2.668116632014831e-05,8.6828414753934e-06,2.4771943165583627e-06,Unknown
0.03167307699999977,8.545373349516718e-06,3.2373509640171847e-06,2.680911871857408e-06,2.6499533042863285e-05,8.62971950830256e-06,2.4750130543513816e-06,Unknown
0.03219230799999995,8.521596369016787e-06,3.227664128545537e-06,2.6802963808892016e-06,2.630329906902892e-05,8.561622336600456e-06,2.4707141147134724e-06,Unknown
0.03271153800000004,8.518485098628439e-06,3.2239699773603645e-06,2.669277325478592e-06,2.6099751465058764e-05,8.493092208789412e-06,2.4589442312712283e-06,Unknown
0.033230769000000215,8.519032611209671e-06,3.224054718210689e-06,2.659968753224256e-06,2.5910755120537735e-05,8.42367716095949e-06,2.4376591845092546e-06,Unknown
0.03375000000000039,8.52107728791437e-06,3.222709360907715e-06,2.650863773546545e-06,2.5751262421286667e-05,8.343834617773312e-06,2.416455088561257e-06,Unknown
0.03426923099999968,8.524214590021849e-06,3.2192038005837686e-06,2.633578895776565e-06,2.561884075250997e-05,8.255673456094815e-06,2.400902003655297e-06,Unknown
0.03478846199999985,8.526996086504013e-06,3.217113515567426e-06,2.5989958938846474e-06,2.550034497103432e-05,8.173816835063176e-06,2.392463813319585e-06,Unknown
0.035307691999999946,8.527552422072401e-06,3.217439299139584e-06,2.560507221575245e-06,2.538443697480186e-05,8.120625407288335e-06,2.3912920319975468e-06,Unknown
0.03582692300000012,8.523487155767424e-06,3.216098998068896e-06,2.542290756018437e-06,2.527164390481243e-05,8.101616199130545e-06,2.394640293024128e-06,Unknown
0.0363461540000003,8.516976402876911e-06,3.2151233294601576e-06,2.5402266005409277e-06,2.5173980820981184e-05,8.10066433787202e-06,2.400209313526666e-06,Unknown
0.036865384999999584,8.506721766179456e-06,3.2209060599710686e-06,2.5405996380199057e-06,2.5101215736368347e-05,8.100167650809788e-06,2.4044468677478912e-06,Unknown
0.03738461499999968,8.486214585686952e-06,3.2318237089955497e-06,2.542689089930548e-06,2.505161834999634e-05,8.095900743087381e-06,2.400760871082022e-06,Unknown
0.03790384599999985,8.474369764738712e-06,3.241190707351535e-06,2.5509883887321063e-06,2.5018861822464e-05,8.090250967747673e-06,2.38458858270085e-06,Unknown
0.03842307700000003,8.480175609265722e-06,3.2452180537119604e-06,2.562541935167037e-06,2.5000439187820143e-05,8.084617439102344e-06,2.361860635669804e-06,Unknown
0.0389423080000002,8.480085272807868e-06,3.247833337112379e-06,2.567725669937623e-06,2.499533071729096e-05,8.08279299745473e-06,2.346918652220558e-06,Unknown
0.039461538000000296,8.47787428863234e-06,3.26437399433336e-06,2.5669264302960417e-06,2.499576847303604e-05,8.083987359484649e-06,2.347015257438391e-06,Unknown
0.03998076899999958,8.480621266989153e-06,3.305194868711251e-06,2.5654590598521317e-06,2.4985928707276933e-05,8.090376645980303e-06,2.357890676401266e-06,Unknown
0.04049999999999976,8.477920381446585e-06,3.35662429335271e-06,2.570897753806482e-06,2.494770780614675e-05,8.093491107435816e-06,2.373363605617805e-06,Unknown
0.041019230999999934,8.476844581552058e-06,3.397467995162128e-06,2.592098646916406e-06,2.486213251466926e-05,8.059656285393831e-06,2.3910632523688515e-06,Unknown
0.04153846200000011,8.47832449496462e-06,3.4203235951200494e-06,2.618353461674755e-06,2.4706886368531117e-05,7.984762207573928e-06,2.409318030243932e-06,Unknown
0.0420576920000002,8.477708833613445e-06,3.427732794239995e-06,2.6273520640609637e-06,2.446016183713859e-05,7.906160737607252e-06,2.422092951908652e-06,Unknown
0.04257692300000038,8.483038679270158e-06,3.4276290587463527e-06,2.6179975143742906e-06,2.4112060588628843e-05,7.85319858407949e-06,2.4247105338424334e-06,Unknown
0.043096153999999665,8.490578074165613e-06,3.428996498007994e-06,2.606522158237078e-06,2.3671194162054447e-05,7.829751107132017e-06,2.422793996900577e-06,Unknown
0.04361538499999984,8.493046414874473e-06,3.4328646637778067e-06,2.5996466476580755e-06,2.3157099549867985e-05,7.815675358532069e-06,2.4217601396504868e-06,Unknown
0.04413461499999993,8.492118296809002e-06,3.4361528045122374e-06,2.5942072442258453e-06,2.2586876806695883e-05,7.7990035667024e-06,2.4210030020473803e-06,Unknown
0.04465384600000011,8.489212563444624e-06,3.4379996611819858e-06,2.5898558065090973e-06,2.197220395988856e-05,7.791777427301734e-06,2.423875915018152e-06,Unknown
0.045173077000000283,8.4936806267566e-06,3.43868266492963e-06,2.5934825917960745e-06,2.1329432981901423e-05,7.792275832829292e-06,2.4318148957103173e-06,Unknown
0.04569230799999957,8.504420174255862e-06,3.4388413623196494e-06,2.6063478968593687e-06,2.0684415639954343e-05,7.792074663347976e-06,2.441308139092097e-06,Unknown
0.04621153799999966,8.506478408610636e-06,3.4387271366467147e-06,2.617222404647299e-06,2.005832340491999e-05,7.79678659170455e-06,2.4503915861469607e-06,Unknown
0.04673076899999984,8.497922766221514e-06,3.438456684396451e-06,2.6238978990861616e-06,1.945317137850795e-05,7.805166045810628e-06,2.4591333244867027e-06,Unknown
0.047250000000000014,8.480528772027895e-06,3.438736051832844e-06,2.625177676068236e-06,1.886085527615103e-05,7.810852278773983e-06,2.4665982261675977e-06,Unknown
0.04776923100000019,8.45403318087556e-06,3.439267875389769e-06,2.614356711758678e-06,1.828867016414982e-05,7.813958368274217e-06,2.4674552459198065e-06,Unknown
0.048288462000000365,8.426730826600428e-06,3.437167785837189e-06,2.6059063291049706e-06,1.7770747150322176e-05,7.807691714532497e-06,2.458527485950128e-06,Unknown
0.04880769199999957,8.412171374001095e-06,3.426493305150291e-06,2.6060219382641653e-06,1.734422085395497e-05,7.787410919628489e-06,2.447499341576124e-06,Unknown
0.049326922999999745,8.411478004334961e-06,3.406069908817088e-06,2.598185578540226e-06,1.701617821733069e-05,7.769539801988329e-06,2.443680086663113e-06,Unknown
0.04984615399999992,8.414544990055649e-06,3.3874313702648007e-06,2.5854868096692856e-06,1.6764906528349634e-05,7.7668842030988e-06,2.443667099660533e-06,Unknown
0.050365385000000096,8.417179259201125e-06,3.3822653665756022e-06,2.577956822851267e-06,1.6567659475014503e-05,7.772661443841327e-06,2.446368450070922e-06,Unknown
0.05088461500000019,8.421681725692829e-06,3.3929323404248964e-06,2.577237948801417e-06,1.6416716342876025e-05,7.778689771563955e-06,2.460199391490305e-06,Unknown
0.051403846000000364,8.432617076904916e-06,3.4088198354410064e-06,2.583287085513066e-06,1.6312532638765734e-05,7.78532127788413e-06,2.482564301187692e-06,Unknown
0.05192307699999965,8.449206638678348e-06,3.4140477897870184e-06,2.579841017260062e-06,1.625063124397722e-05,7.794238486589704e-06,2.50130380632486e-06,Unknown
0.052442307999999827,8.464054687850976e-06,3.406822621061276e-06,2.558015426680109e-06,1.621894718367487e-05,7.792865414899959e-06,2.510194279461886e-06,Unknown
0.05296153799999992,8.473175089724913e-06,3.390851266269354e-06,2.5405920239986466e-06,1.6206477586282157e-05,7.766330196207617e-06,2.512262324077581e-06,Unknown
0.053480769000000095,8.475863814068805e-06,3.3683426365585624e-06,2.540949274794612e-06,1.6205367900618798e-05,7.73249324473984e-06,2.5119568936450974e-06,Unknown
0.05400000000000027,8.47837773316222e-06,3.349636944418296e-06,2.5440015561652907e-06,1.6202461847504232e-05,7.717678991468237e-06,2.512076149806769e-06,Unknown
0.05451923099999956,8.484795478908925e-06,3.3411126522478904e-06,2.543927704578688e-06,1.6185137133179176e-05,7.718516354797563e-06,2.5139173636175943e-06,Unknown
0.05503846199999973,8.485832376441725e-06,3.3391391770753297e-06,2.5431891621811557e-06,1.615170318015394e-05,7.722944126945913e-06,2.514753037774169e-06,Unknown
0.055557691999999825,8.48978654659407e-06,3.3427344019524847e-06,2.53695202986658e-06,1.6099779879557346e-05,7.721436482668768e-06,2.5141933355978524e-06,Unknown
0.056076923,8.516368408471879e-06,3.347125170634424e-06,2.5304710903266584e-06,1.6010886999038987e-05,7.713373753694425e-06,2.5140240497409364e-06,Unknown
0.056596154000000176,8.555858357065391e-06,3.3470669089087435e-06,2.5303351968816435e-06,1.5851808735032133e-05,7.712568652945392e-06,2.514041464905396e-06,Unknown
0.05711538500000035,8.592441400370099e-06,3.347845092492481e-06,2.538736585342568e-06,1.5599750442812564e-05,7.715884116606362e-06,2.514203676527904e-06,Unknown
0.057634614999999556,8.620133930085396e-06,3.34967262354483e-06,2.556758076910113e-06,1.5268342779256873e-05,7.713604958432865e-06,2.5162157738189022e-06,Unknown
0.05815384599999973,8.643101762337897e-06,3.3468452460557846e-06,2.5668082329501206e-06,1.4887859773082935e-05,7.712426663307217e-06,2.524339674031465e-06,Unknown
0.05867307699999991,8.68234481096356e-06,3.3391470257268315e-06,2.560460757289272e-06,1.4466717446424388e-05,7.712496738924777e-06,2.537085972638171e-06,Unknown
0.05919230800000008,8.735825940963863e-06,3.32631817732355e-06,2.5595311416374825e-06,1.3993002979976878e-05,7.712422985500834e-06,2.546992963117404e-06,Unknown
0.059711538000000175,8.781119114548822e-06,3.308441537087048e-06,2.571192125730425e-06,1.346848506196741e-05,7.71592198065937e-06,2.5484424963895085e-06,Unknown
0.06023076900000035,8.774192607970884e-06,3.2894192771096274e-06,2.579953757710997e-06,1.2926385163343778e-05,7.719580311721311e-06,2.5387142735748774e-06,Unknown
0.06074999999999964,8.633595588887039e-06,3.2739053765897434e-06,2.5812397959303268e-06,1.2405013764647988e-05,7.722774793643563e-06,2.524162370116762e-06,Unknown
0.06126923099999981,8.355386152714082e-06,3.263930861011409e-06,2.579018153691265e-06,1.19129725397949e-05,7.726250856860489e-06,2.5152555876186163e-06,Unknown
0.06178846199999999,8.068539318782182e-06,3.2590832036920336e-06,2.5798185265716167e-06,1.1433552603450651e-05,7.725806975483582e-06,2.513980733878882e-06,Unknown
0.06230769200000008,7.887014307450787e-06,3.258515259901926e-06,2.584337909903357e-06,1.095446809390813e-05,7.724812044061238e-06,2.526065511820561e-06,Unknown
0.06282692300000026,7.80851384905633e-06,3.260997391892073e-06,2.585265621600629e-06,1.0482282374786558e-05,7.725001814122593e-06,2.5536738773585658e-06,Unknown
0.06334615399999954,7.783118244282866e-06,3.26532267844718e-06,2.5856919213653697e-06,1.003291147781444e-05,7.717380959539513e-06,2.570116330867332e-06,Unknown
0.06386538499999972,7.778291156403445e-06,3.269180457778e-06,2.588745886215385e-06,9.617601868317634e-06,7.70501370017527e-06,2.5630030366657224e-06,Unknown
0.06438461499999981,7.7782804123138e-06,3.2706571056078567e-06,2.5911128290621747e-06,9.240217611504804e-06,7.69414673667281e-06,2.5581097775569906e-06,Unknown
0.06490384599999999,7.777413722714869e-06,3.269971180045044e-06,2.5931481585521107e-06,8.905010258492288e-06,7.680770482105343e-06,2.5627216787639696e-06,Unknown
0.06542307700000016,7.769509342166722e-06,3.2669490502413437e-06,2.599746164370353e-06,8.619126453198463e-06,7.668209705559592e-06,2.562957943564359e-06,Unknown
0.06594230800000034,7.722723482252392e-06,3.2599355555734284e-06,2.61390285525524e-06,8.382287732275272e-06,7.662587005333234e-06,2.56245673397294e-06,Unknown
0.06646153799999954,7.560098815191618e-06,3.2484245065596968e-06,2.625745074283565e-06,8.179949426035451e-06,7.661106121005633e-06,2.5658711641343613e-06,Unknown
0.06698076899999972,7.231261854337003e-06,3.2362471644078443e-06,2.623750998362104e-06,7.993114367433815e-06,7.661465510193715e-06,2.5675427949069427e-06,Unknown
0.0674999999999999,6.8647206313784125e-06,3.229571338985366e-06,2.6146626778899413e-06,7.816148206091276e-06,7.66336653578727e-06,2.567255879791821e-06,Unknown
0.06801923100000007,6.666696891728887e-06,3.231276518873421e-06,2.611887926845869e-06,7.664795529568161e-06,7.662793089049471e-06,2.5678062622785746e-06,Unknown
0.06853846200000024,6.632577551311202e-06,3.2378536952224467e-06,2.613202134885989e-06,7.559403626292271e-06,7.659241666375394e-06,2.5720277987163776e-06,Unknown
0.06905769200000034,6.63638287537605e-06,3.2442143033633827e-06,2.615213883132113e-06,7.499836255768839e-06,7.657603370338464e-06,2.5791112560211544e-06,Unknown
0.06957692299999962,6.634862782747336e-06,3.2485821728284235e-06,2.619476308696088e-06,7.468574630015965e-06,7.657668134960553e-06,2.580193620247083e-06,Unknown
0.0700961539999998,6.63251299101208e-06,3.2503322422480188e-06,2.6175110229436945e-06,7.451591523344568e-06,7.657001223898873e-06,2.5757707188445883e-06,Unknown
0.07061538499999997,6.63283394772869e-06,3.2506193003661444e-06,2.608201104963771e-06,7.444576051939043e-06,7.659349304326622e-06,2.57471534907593e-06,Unknown
0.07113461500000007,6.626843657211674e-06,3.2516055476572216e-06,2.602311227148545e-06,7.445312722069303e-06,7.66874187033092e-06,2.5746411920113136e-06,Unknown
0.07165384600000024,6.5999293835396935e-06,3.253482110978568e-06,2.6015010384339627e-06,7.448929277815672e-06,7.683663810801861e-06,2.5734314104552345e-06,Unknown
0.07217307699999953,6.561999712335165e-06,3.2565449118962537e-06,2.6009336684902408e-06,7.452142437244279e-06,7.694523351157385e-06,2.5748337882899644e-06,Unknown
0.0726923079999997,6.534947100239519e-06,3.259123810383371e-06,2.595400886133838e-06,7.455111006218663e-06,7.695854724456071e-06,2.5753123929989278e-06,Unknown
0.0732115379999998,6.521062304539786e-06,3.259395772638095e-06,2.580549921670153e-06,7.458485962642987e-06,7.695077776793417e-06,2.5705899638276064e-06,Unknown
0.07373076899999997,6.50728246980844e-06,3.259827536224793e-06,2.5684329160627705e-06,7.461441516679668e-06,7.6953506949201e-06,2.563497472218984e-06,Unknown
0.07425000000000015,6.485149182258631e-06,3.260572088726233e-06,2.568807887656383e-06,7.4561918537725e-06,7.695576325223986e-06,2.559116399805732e-06,Unknown
0.07476923100000032,6.46285570958327e-06,3.2606777283514264e-06,2.562914414454031e-06,7.428991565328978e-06,7.693902139265498e-06,2.5591730183972607e-06,Unknown
0.07528846199999961,6.454509634401417e-06,3.258967436161767e-06,2.5482671456785017e-06,7.374351476808989e-06,7.682623610659043e-06,2.556605652314165e-06,Unknown
0.0758076919999997,6.456203411788132e-06,3.2483566744744844e-06,2.5447012576728184e-06,7.293550138991427e-06,7.667198213065445e-06,2.542276475611166e-06,Unknown
0.07632692299999988,6.45470158147697e-06,3.2286520089931534e-06,2.5417756005309414e-06,7.1814293843290565e-06,7.661378120207478e-06,2.522440070089247e-06,Unknown
0.07684615400000006,6.452531447477334e-06,3.211090490529965e-06,2.523631807276141e-06,7.0310124418056645e-06,7.661058300951848e-06,2.5103091017715447e-06,Unknown
0.07736538500000023,6.4559703464958695e-06,3.2006312559266704e-06,2.5045400504966515e-06,6.842345047232422e-06,7.66214315837208e-06,2.506575786363925e-06,Unknown
0.07788461500000032,6.457856034557434e-06,3.192940352110344e-06,2.497390511976203e-06,6.625737626265265e-06,7.665173306180349e-06,2.506519564340853e-06,Unknown
0.07840384599999961,6.4491212128112594e-06,3.184905073293218e-06,2.497134985616011e-06,6.395944143116751e-06,7.66458030561372e-06,2.5060217759708583e-06,Unknown
0.07892307699999979,6.4313584371702204e-06,3.1789214557004587e-06,2.4971049846988776e-06,6.157873573779848e-06,7.657991113733737e-06,2.499417560286449e-06,Unknown
0.07944230799999996,6.413264275574167e-06,3.177117092089076e-06,2.49691812165504e-06,5.909073768787573e-06,7.648128878583837e-06,2.4886853056361683e-06,Unknown
0.07996153800000005,6.4017617120701e-06,3.177542591812773e-06,2.499896653816068e-06,5.655252600746461e-06,7.65039858895072e-06,2.4824604882813066e-06,Unknown
0.08048076900000023,6.39645921841622e-06,3.1744213081424386e-06,2.505805032121474e-06,5.412277632006914e-06,7.670008260332118e-06,2.481618833218012e-06,Unknown
0.0810000000000004,6.394201577025844e-06,3.166891306727441e-06,2.508616164543782e-06,5.188107502630846e-06,7.676941840379471e-06,2.481638620441197e-06,Unknown
0.08151923099999969,6.394145014435299e-06,3.163737622863703e-06,2.5065465485108527e-06,4.9680682159734335e-06,7.662493574675104e-06,2.4837964729246285e-06,Unknown
0.08203846199999987,6.3861110949570815e-06,3.164063830253365e-06,2.5028606186954355e-06,4.729699501493362e-06,7.653974990234521e-06,2.490197664371214e-06,Unknown
0.08255769199999996,6.370397773277884e-06,3.1638510439461014e-06,2.4956733515279663e-06,4.476462114732645e-06,7.65319397988671e-06,2.4970577992024016e-06,Unknown
0.08307692300000014,6.365173134241722e-06,3.1640779000033168e-06,2.491679676833965e-06,4.246434637363152e-06,7.650589331430281e-06,2.500533278447729e-06,Unknown
0.08359615400000031,6.3670528391633945e-06,3.1574759091137794e-06,2.5003763335079075e-06,4.066524817839183e-06,7.646890890874675e-06,2.50111307351652e-06,Unknown
0.0841153849999996,6.3606065716618215e-06,3.1484401174799635e-06,2.508188464881964e-06,3.918632890106334e-06,7.630903481826728e-06,2.4986825385681006e-06,Unknown
0.08463461499999969,6.315910115752077e-06,3.1493747929326315e-06,2.508286699550218e-06,3.766051358659636e-06,7.606713364891263e-06,2.490908523458695e-06,Unknown
0.08515384599999987,6.209436081997661e-06,3.1543262912029192e-06,2.5114753222391e-06,3.593271244058022e-06,7.597221411423608e-06,2.479167545285333e-06,Unknown
0.08567307700000004,6.104288826787947e-06,3.1551169676096896e-06,2.50913877501054e-06,3.426153559916555e-06,7.59790484299658e-06,2.4722947856915288e-06,Unknown
0.08619230800000022,6.07177197508489e-06,3.1527036659916837e-06,2.493034590833588e-06,3.3020932504401687e-06,7.594080795176638e-06,2.484600372425455e-06,Unknown
0.08671153800000031,6.0718385455607295e-06,3.1491438337519206e-06,2.474914149628488e-06,3.220540385858037e-06,7.594804455924803e-06,2.5178798499015333e-06,Unknown
0.0872307689999996,6.051159634790341e-06,3.147326993160965e-06,2.459391216358083e-06,3.1524790573970624e-06,7.603733337076442e-06,2.552814683842565e-06,Unknown
0.08774999999999977,6.030378896265236e-06,3.1463210316004426e-06,2.454846334142124e-06,3.0883015435515103e-06,7.609502528042312e-06,2.5758773002759536e-06,Unknown
0.08826923099999995,6.028874639703274e-06,3.147049394325926e-06,2.467210557729943e-06,3.041494727241016e-06,7.610343640630916e-06,2.5870020119064186e-06,Unknown
0.08878846200000012,6.034526774455869e-06,3.161528006867764e-06,2.479153277343559e-06,3.015831672351008e-06,7.610101390671048e-06,2.5904262472728325e-06,Unknown
0.08930769200000022,6.037392906682207e-06,3.189698316502924e-06,2.4823725424412104e-06,3.001462460374178e-06,7.6091843291616115e-06,2.59464372521514e-06,Unknown
0.08982692300000039,6.029859051778059e-06,3.2133538436799485e-06,2.482464602535827e-06,2.990864485440979e-06,7.604656364794798e-06,2.594214354374803e-06,Unknown
0.09034615399999968,6.013491200378348e-06,3.225227356411544e-06,2.48252631957375e-06,2.9828305192947127e-06,7.594002575335265e-06,2.577211658454416e-06,Unknown
0.09086538499999985,5.998456703254143e-06,3.232525886908536e-06,2.4893575081148355e-06,2.9792095257735748e-06,7.586684601255103e-06,2.5573828073669464e-06,Unknown
0.09138461499999995,5.991064030619492e-06,3.24196998506624e-06,2.504276090616564e-06,2.979396992782347e-06,7.586828875521331e-06,2.565290578273597e-06,Unknown
0.09190384600000012,5.994214801616233e-06,3.2530135255276205e-06,2.5163864758435715e-06,2.979700858936053e-06,7.586813846489173e-06,2.6215797862526608e-06,Unknown
0.0924230770000003,5.999662311364103e-06,3.258532397958887e-06,2.518374000597446e-06,2.979244170887885e-06,7.590928957938325e-06,2.721965793274582e-06,Unknown
0.09294230799999958,5.997449713752412e-06,3.257634415961461e-06,2.5201928981179264e-06,2.979208620469293e-06,7.599650597992589e-06,2.8316747987761467e-06,Unknown
0.09346153799999968,5.995505041720063e-06,3.255751058499569e-06,2.5360094191433183e-06,2.979752018960367e-06,7.603429380622711e-06,2.914714115799312e-06,Unknown
0.09398076899999985,5.9948905005245385e-06,3.254586309042239e-06,2.556010086582489e-06,2.9882622950625406e-06,7.60364574417464e-06,2.9802190108143764e-06,Unknown
0.09450000000000003,5.989195266425665e-06,3.254193809130593e-06,2.5628319495436067e-06,3.012844602540508e-06,7.603036543101913e-06,3.0921970773247623e-06,Unknown
0.0950192310000002,5.987116448907584e-06,3.2542676200282877e-06,2.5609277182989347e-06,3.0418639392976963e-06,7.60133665712537e-06,3.3741139057491582e-06,Unknown
0.09553846200000038,5.986598865477639e-06,3.25339837900074e-06,2.5628912202553025e-06,3.058984416978504e-06,7.595324739193301e-06,3.875542548628539e-06,Unknown
0.09605769199999958,5.987330957999824e-06,3.2528160109657788e-06,2.568705602997074e-06,3.065919517924941e-06,7.574043510686083e-06,4.392751360780715e-06,Unknown
0.09657692299999976,5.990945779090004e-06,3.2535518444621936e-06,2.571689049435044e-06,3.06840613110073e-06,7.543566402376223e-06,4.716770148002378e-06,Unknown
0.09709615399999993,5.953122334270788e-06,3.2530710885831457e-06,2.569306770595917e-06,3.061138320076986e-06,7.524088252266831e-06,4.871880798042119e-06,Unknown
0.09761538500000011,5.872820303132589e-06,3.2523112294342638e-06,2.561983899035521e-06,3.049781739067522e-06,7.512426277310971e-06,4.983083475449708e-06,Unknown
0.0981346150000002,5.843980596467882e-06,3.253013720511041e-06,2.558419192170702e-06,3.0544105222335467e-06,7.493917808148445e-06,5.1313690241938215e-06,Unknown
0.09865384600000038,5.893450541940216e-06,3.2525438078645407e-06,2.5655329723904907e-06,3.0720226241109383e-06,7.468894960487373e-06,5.310757213682088e-06,Unknown
0.09917307699999967,5.942627328669678e-06,3.248394109992405e-06,2.573611083789547e-06,3.08160879096118e-06,7.445275185704854e-06,5.419381584522719e-06,Unknown
0.09969230799999984,5.950068216358613e-06,3.2405619726347843e-06,2.574267606499976e-06,3.0698055837912383e-06,7.434499922717765e-06,5.4252325992799244e-06,Unknown
0.10021153799999993,5.942015737446749e-06,3.233542991190114e-06,2.573811075475773e-06,3.032657595327247e-06,7.440621261805535e-06,5.488770466985635e-06,Unknown
0.10073076900000011,5.940596694816362e-06,3.232936236551542e-06,2.5772910397580065e-06,2.983143787935878e-06,7.451444860150235e-06,5.809840925923949e-06,Unknown
0.10125000000000028,5.939428926319451e-06,3.237166822218577e-06,2.5801951168807296e-06,2.9452889191851416e-06,7.458285114846772e-06,6.426959618962424e-06,Unknown
0.10176923099999957,5.938509609024122e-06,3.238133988186692e-06,2.580569705174916e-06,2.9364995880470827e-06,7.458680098333116e-06,7.23530048318583e-06,Unknown
0.10228846199999975,5.9498884809190165e-06,3.235966028526993e-06,2.580247404782876e-06,2.9541080109608097e-06,7.452933141383146e-06,8.120324058916124e-06,Unknown
0.10280769199999984,5.970254678881272e-06,3.2360885778640488e-06,2.5800136267983886e-06,2.9802063174101387e-06,7.454103347825269e-06,9.024398839301382e-06,Unknown
0.10332692300000001,5.990073388106602e-06,3.2399671276042557e-06,2.583320912663168e-06,3.008549495787028e-06,7.467251733509797e-06,9.917051519305573e-06,Unknown
0.10384615400000019,6.00965087867502e-06,3.253228529157248e-06,2.587698783687963e-06,3.0441961547733477e-06,7.471773735814356e-06,1.0729031362318618e-05,Unknown
0.10436538500000037,6.03317224148563e-06,3.267784211095943e-06,2.5871114243482484e-06,3.099415285414421e-06,7.457240578651791e-06,1.135144282815676e-05,Unknown
0.10488461499999957,6.060338663186278e-06,3.2692830937533403e-06,2.5940005314385293e-06,3.1942599507305145e-06,7.446590862205403e-06,1.1717391096149525e-05,Unknown
0.10540384599999975,6.081098689555495e-06,3.266952806406721e-06,2.619866605620435e-06,3.3259495129921613e-06,7.455104220760342e-06,1.1848411638621753e-05,Unknown
0.10592307699999992,6.090555531702477e-06,3.267552776644432e-06,2.64366149716546e-06,3.458528726593525e-06,7.467109550786419e-06,1.1850886655169704e-05,Unknown
0.1064423080000001,6.094522668484939e-06,3.268793512764174e-06,2.6484177553508864e-06,3.554118498018857e-06,7.469158657774267e-06,1.1955686355591416e-05,Unknown
0.10696153800000019,6.096364371332146e-06,3.271407704456891e-06,2.6488465536342563e-06,3.6009639260597367e-06,7.466346060231046e-06,1.2400310385975368e-05,Unknown
0.10748076900000036,6.0952280379916414e-06,3.269150877247374e-06,2.648294538945831e-06,3.616398629783408e-06,7.468183551393957e-06,1.302691658462908e-05,Unknown
0.10799999999999965,6.086618330817168e-06,3.2582228731137373e-06,2.639525359200743e-06,3.634495145941376e-06,7.470812641824344e-06,1.342726377874735e-05,Unknown
0.10851923099999983,6.066588065914979e-06,3.238992704304884e-06,2.6356515923518268e-06,3.679327281722152e-06,7.45990444390187e-06,1.3547144009381784e-05,Unknown
0.109038462,6.0408848705726345e-06,3.21723652907778e-06,2.638545812297843e-06,3.740195545688964e-06,7.445057852213769e-06,1.3571664820131588e-05,Unknown
0.1095576920000001,6.026674140860348e-06,3.2049136358326952e-06,2.63861241071816e-06,3.793496328408539e-06,7.456849859502015e-06,1.3583611482539849e-05,Unknown
0.11007692300000027,6.027242689206594e-06,3.2009278550031053e-06,2.6405140687549047e-06,3.829703312967699e-06,7.4887221301168385e-06,1.3581645639186566e-05,Unknown
0.11059615399999956,6.026942856992532e-06,3.1964259946091904e-06,2.6433987727054206e-06,3.846913209963496e-06,7.508394556889432e-06,1.3753879591564508e-05,Unknown
0.11111538499999973,6.027310943446257e-06,3.1895214848433718e-06,2.6435957648562117e-06,3.850799949182493e-06,7.502209054137843e-06,1.4723609095696477e-05,Unknown
0.11163461499999983,6.034287125638695e-06,3.1819055000789075e-06,2.6435999047619625e-06,3.851665234566384e-06,7.4747105984373505e-06,1.6429428255436492e-05,Unknown
0.112153846,6.037493390281001e-06,3.1784899969760325e-06,2.64382739272174e-06,3.852381100740186e-06,7.450405802562545e-06,1.783072213149652e-05,Unknown
0.11267307700000018,6.035707205690027e-06,3.180272865648231e-06,2.6510021033521305e-06,3.851311644518659e-06,7.444682946278663e-06,1.8478206189777825e-05,Unknown
0.11319230800000035,6.035059268347948e-06,3.1785241171847216e-06,2.66646856619598e-06,3.845564529032862e-06,7.450761828581861e-06,1.8722619438575077e-05,Unknown
0.11371153799999956,6.028834142193939e-06,3.1703698051073595e-06,2.6759982055118557e-06,3.836873569822786e-06,7.464662663569356e-06,1.892047975929e-05,Unknown
0.11423076899999973,6.002930198584e-06,3.162262616393472e-06,2.675040747799665e-06,3.837192190113893e-06,7.474381121740606e-06,1.9250565255728645e-05,Unknown
0.11474999999999991,5.967960632461264e-06,3.156448473195368e-06,2.673887174403901e-06,3.851637498841959e-06,7.474530025370676e-06,1.965538435069413e-05,Unknown
0.11526923100000008,5.957405608540801e-06,3.1480140509235214e-06,2.6736527846820717e-06,3.87381952793293e-06,7.468361847593497e-06,1.985837851543609e-05,Unknown
0.11578846200000026,5.956301256372528e-06,3.134135600264324e-06,2.6715400175099417e-06,3.90685766949495e-06,7.389624445690173e-06,1.9859296634589644e-05,Unknown
0.11630769200000035,5.912594164599068e-06,3.120938118506326e-06,2.681904022213287e-06,3.977168795406716e-06,7.23790531504047e-06,2.0052618331657808e-05,Unknown
0.11682692299999964,5.827588456562861e-06,3.1147214604966365e-06,2.70913524690321e-06,4.124045842666979e-06,7.2049285844693695e-06,2.05761894619126e-05,Unknown
0.11734615399999981,5.742848643593969e-06,3.11626555055086e-06,2.728352646582024e-06,4.341000512187432e-06,7.35678251481466e-06,2.106444414374128e-05,Unknown
0.11786538499999999,5.677265237616898e-06,3.12506799882557e-06,2.7293367457820177e-06,4.557594127342964e-06,7.543324649201395e-06,2.1276037631797256e-05,Unknown
0.11838461500000008,5.628387941350802e-06,3.1395374242915746e-06,2.734996008834077e-06,4.720967537166479e-06,7.68101686876065e-06,2.13361907163644e-05,Unknown
0.11890384600000026,5.598509513825316e-06,3.155569748184645e-06,2.7614297456164284e-06,4.841263286210058e-06,7.772782073227804e-06,2.140425960143988e-05,Unknown
0.11942307699999954,5.5861604908621e-06,3.1662249033114414e-06,2.793390103803399e-06,4.957077237572218e-06,7.82921651305211e-06,2.168015466643116e-05,Unknown
0.11994230799999972,5.574954283793745e-06,3.167854832048452e-06,2.806978861080113e-06,5.090473830471223e-06,7.877107701815466e-06,2.2420668783366684e-05,Unknown
0.12046153799999981,5.555040001497942e-06,3.164534988463453e-06,2.7992975694948582e-06,5.237011407056521e-06,7.925353677671632e-06,2.3513125217856087e-05,Unknown
0.12098076899999999,5.535689726178315e-06,3.157140785375445e-06,2.787496589612964e-06,5.390258362602402e-06,7.941958851598785e-06,2.447979806197632e-05,Unknown
0.12150000000000016,5.533273140108275e-06,3.141266773239385e-06,2.783580254589889e-06,5.555074586211433e-06,7.942660943597754e-06,2.5012181450092192e-05,Unknown
0.12201923100000034,5.5243572670329785e-06,3.1176693451760265e-06,2.785085156566262e-06,5.747544246753582e-06,8.046347765679991e-06,2.5178586035410776e-05,Unknown
0.12253846199999963,5.444575632417927e-06,3.0972564347591094e-06,2.7859264052595854e-06,5.983806409807023e-06,8.281229805328937e-06,2.519536445019903e-05,Unknown
0.12305769199999972,5.29719012441924e-06,3.090418774333003e-06,2.783799815004629e-06,6.262938376911599e-06,8.453639452396057e-06,2.5197597590953236e-05,Unknown
0.1235769229999999,5.175128500167789e-06,3.091191989121524e-06,2.783355492375839e-06,6.572136380029132e-06,8.468304600211396e-06,2.5213455478185405e-05,Unknown
0.12409615400000007,5.125481600476262e-06,3.0957409593697785e-06,2.7869085719291365e-06,6.888925004050528e-06,8.502864031943553e-06,2.522808678580434e-05,Unknown
0.12461538500000024,5.113553223947848e-06,3.104856457989474e-06,2.7886692465842407e-06,7.192500011245527e-06,8.693925925490799e-06,2.5229793980109238e-05,Unknown
0.12513461500000034,5.110125111282872e-06,3.11083840233845e-06,2.78853777956916e-06,7.487380590926083e-06,9.042078998681612e-06,2.523936625507673e-05,Unknown
0.12565384599999962,5.1044744062787405e-06,3.111195275676034e-06,2.788577872514856e-06,7.796590781639048e-06,9.59493662153056e-06,2.5301519317786094e-05,Unknown
0.1261730769999998,5.09680193529562e-06,3.105639007924672e-06,2.7870772407572182e-06,8.144823923107404e-06,1.0354302186092888e-05,2.5421644690108884e-05,Unknown
0.12669230799999998,5.096656062380403e-06,3.0996945385165665e-06,2.7887276460768007e-06,8.54015582999649e-06,1.0975043778205796e-05,2.55442356927565e-05,Unknown
0.12721153800000007,5.097386575474366e-06,3.1041925472555228e-06,2.7967611619364382e-06,8.961102639637613e-06,1.108400213849191e-05,2.5618779415074244e-05,Unknown
0.12773076900000024,5.0977679703787815e-06,3.1114686521075312e-06,2.806067026509586e-06,9.38108752251691e-06,1.1248866229335992e-05,2.564505077121361e-05,Unknown
0.12824999999999953,5.103678347618154e-06,3.112162585653211e-06,2.813936087131992e-06,9.792685271203855e-06,1.2211807458232164e-05,2.564924890892845e-05,Unknown
0.1287692309999997,5.10070948096152e-06,3.1142234851752805e-06,2.820990469409356e-06,1.0203505520892649e-05,1.3196373074474592e-05,2.564936643634735e-05,Unknown
0.12928846199999988,5.086054436613337e-06,3.120266547209368e-06,2.826257626624669e-06,1.0624914314119296e-05,1.3471378014315673e-05,2.564869938894769e-05,Unknown
0.12980769199999997,5.078320304416554e-06,3.123719591004469e-06,2.8292236889671163e-06,1.1053739283332943e-05,1.346837076918917e-05,2.5648146233809783e-05,Unknown
0.13032692300000015,5.092235196117045e-06,3.123942856682624e-06,2.8302083929505124e-06,1.1443359847294552e-05,1.3474872870757953e-05,2.564991439281693e-05,Unknown
0.13084615400000033,5.130034153817501e-06,3.1225920861610026e-06,2.829463014512154e-06,1.1702288540308707e-05,1.3548550200808589e-05,2.5651868178333947e-05,Unknown
0.1313653849999996,5.162021537184102e-06,3.119286321502177e-06,2.833439861208865e-06,1.1780702312946923e-05,1.4108799764148636e-05,2.5651896766911308e-05,Unknown
0.1318846149999997,5.162639729083472e-06,3.1117490568329555e-06,2.8466880228901145e-06,1.1781315839667972e-05,1.4917515871244818e-05,2.5653528754605472e-05,Unknown
0.13240384599999988,5.156861035774605e-06,3.0976447944154488e-06,2.8612761303697422e-06,1.189185951133828e-05,1.5331041448338237e-05,2.565572887744051e-05,Unknown
0.13292307700000006,5.163185906043292e-06,3.076585906436141e-06,2.8691117858501518e-06,1.2179569637621367e-05,1.53909627721422e-05,2.565556995935023e-05,Unknown
0.13344230800000023,5.16759892246803e-06,3.050522614987741e-06,2.8699434059222165e-06,1.2572391931110207e-05,1.538995589401823e-05,2.5660626514468863e-05,Unknown
0.13396153800000032,5.166321397659716e-06,3.027185448901268e-06,2.869021322071123e-06,1.3009364561015396e-05,1.5438413714567115e-05,2.5668627721693705e-05,Unknown
0.1344807689999996,5.1639839282094265e-06,3.0119311596995628e-06,2.8687773784105093e-06,1.349179419564138e-05,1.5777728966116357e-05,2.56698810568319e-05,Unknown
0.1349999999999998,5.165572401407855e-06,3.005955106036042e-06,2.872690045682641e-06,1.4028982510000646e-05,1.64935178717051e-05,2.567006983012274e-05,Unknown
0.13551923099999996,5.177675472297821e-06,3.0120173861791986e-06,2.8825712488576294e-06,1.4599462336115942e-05,1.7100630184227395e-05,2.567026949224609e-05,Unknown
0.13603846200000014,5.193689035831503e-06,3.0222171109983995e-06,2.8866309032654445e-06,1.5174029409433104e-05,1.723732580748641e-05,2.5675061054178247e-05,Unknown
0.13655769200000023,5.20160689959662e-06,3.02519665982719e-06,2.882524783093522e-06,1.5753788233139902e-05,1.726522561102244e-05,2.571585176162208e-05,Unknown
0.1370769230000004,5.199582338661088e-06,3.02088765417156e-06,2.8765852665024238e-06,1.6365522787415287e-05,1.7528490364987096e-05,2.5797753754369088e-05,Unknown
0.1375961539999997,5.190236729701711e-06,3.007466541351985e-06,2.868512868010296e-06,1.702257678333791e-05,1.77852339816568e-05,2.587467933057388e-05,Unknown
0.13811538499999987,5.183504705437522e-06,2.9868085268083644e-06,2.8672622951405263e-06,1.769908988045106e-05,1.786781657980294e-05,2.591879801729574e-05,Unknown
0.13863461499999996,5.18905415441496e-06,2.9732912618050844e-06,2.8893235990142007e-06,1.834239532203394e-05,1.7879155056850727e-05,2.5945456173556587e-05,Unknown
0.13915384600000014,5.193602227364767e-06,2.970254421968921e-06,2.934421833530231e-06,1.890472353246657e-05,1.788218868231696e-05,2.597928165526408e-05,Unknown
0.1396730770000003,5.189366030228273e-06,2.9696450746179653e-06,2.975653163707221e-06,1.936809242415965e-05,1.7881851974327537e-05,2.6039802134636195e-05,Unknown
0.1401923079999996,5.187526215718617e-06,2.97085357697196e-06,2.987636071596776e-06,1.9743629066964203e-05,1.788770347920928e-05,2.6125711982741916e-05,Unknown
0.1407115379999997,5.185025724265223e-06,2.9745631950617765e-06,2.9719881338357773e-06,2.005099097631423e-05,1.7945072102633256e-05,2.6215153536704904e-05,Unknown
0.14123076899999987,5.17911170104884e-06,2.9814400294504345e-06,2.949707773722317e-06,2.0304819491731785e-05,1.802160049272431e-05,2.629240673434069e-05,Unknown
0.14175000000000004,5.177019039443627e-06,2.989889696661138e-06,2.9430633137123933e-06,2.0509729274351597e-05,1.8038755152049693e-05,2.6355638885040196e-05,Unknown
0.14226923100000022,5.1775906525143326e-06,2.9865753177305783e-06,2.9461003889742977e-06,2.066129086999404e-05,1.8042935573139875e-05,2.640663595662783e-05,Unknown
0.1427884620000004,5.179363374798139e-06,2.9687912649580907e-06,2.943332548551968e-06,2.0759710241189028e-05,1.810180962637237e-05,2.6446724488172868e-05,Unknown
0.1433076919999996,5.186607487745458e-06,2.9542813772699963e-06,2.940999671106786e-06,2.081644148808673e-05,1.818783158900005e-05,2.6481255617306757e-05,Unknown
0.14382692299999977,5.209436614461334e-06,2.952030345491956e-06,2.9415528520259e-06,2.0845487756096408e-05,1.826173673508717e-05,2.6520294576173947e-05,Unknown
0.14434615399999995,5.246629256520841e-06,2.95791407182692e-06,2.941863613170412e-06,2.085754035176054e-05,1.831901824562489e-05,2.657386685114833e-05,Unknown
0.14486538500000012,5.2702552948287404e-06,2.96433795032667e-06,2.943931019177537e-06,2.086048724249391e-05,1.8363345562856447e-05,2.6640804243571647e-05,Unknown
0.14538461500000022,5.26506984785655e-06,2.955482502896433e-06,2.943094853985095e-06,2.086022632540481e-05,1.8398558009358385e-05,2.669811998972784e-05,Unknown
0.1459038460000004,5.256197034522677e-06,2.922490598164232e-06,2.9289151408778017e-06,2.0860094331320617e-05,1.842564420606676e-05,2.672046585906261e-05,Unknown
0.14642307699999968,5.248582634036705e-06,2.8779709130695707e-06,2.898145246056816e-06,2.086160905045961e-05,1.8431067400407535e-05,2.6720386566294e-05,Unknown
0.14694230799999985,5.228678461166944e-06,2.838791726922607e-06,2.868504008869146e-06,2.0867363485087097e-05,1.8394744657397865e-05,2.6734806689264743e-05,Unknown
0.14746153799999995,5.225006986983499e-06,2.8114487903645177e-06,2.872845090345152e-06,2.0882495416780575e-05,1.83337951344098e-05,2.6764771616326823e-05,Unknown
0.14798076900000012,5.23806759719891e-06,2.795175947394879e-06,2.911247229235156e-06,2.091251709702125e-05,1.8308875706836846e-05,2.6784397377528245e-05,Unknown
0.1485000000000003,5.238026507887949e-06,2.785276503484814e-06,2.948082781219646e-06,2.095895566276828e-05,1.833421748671523e-05,2.679017302261215e-05,Unknown
0.14901923099999959,5.236333719941409e-06,2.7760950901281923e-06,2.9662151281694933e-06,2.1019397117997716e-05,1.833656377701604e-05,2.679238597315025e-05,Unknown
0.14953846199999976,5.2428964804258926e-06,2.7648694080410777e-06,2.9717402962863517e-06,2.1092369985742507e-05,1.828218555348693e-05,2.679649189523148e-05,Unknown
0.15005769199999985,5.245406835563092e-06,2.7547455810200604e-06,2.9757587590592368e-06,2.11791134194966e-05,1.824968093452485e-05,2.6803949730012276e-05,Unknown
0.15057692300000003,5.231572029464444e-06,2.7505699166261192e-06,2.98479471004325e-06,2.127923669894732e-05,1.8261104688468693e-05,2.681247578867149e-05,Unknown
0.1510961540000002,5.209246642718874e-06,2.750501132132367e-06,2.9936061567902816e-06,2.1386508285838588e-05,1.8201826368208804e-05,2.6820665313278767e-05,Unknown
0.15161538500000038,5.216910934557035e-06,2.750602587806815e-06,2.995758993072662e-06,2.149292183272439e-05,1.8059485780245356e-05,2.68302339507613e-05,Unknown
0.15213461499999958,5.263866517564749e-06,2.750506399774781e-06,2.9937403597601805e-06,2.1594727898203447e-05,1.7979995514288177e-05,2.684377528591808e-05,Unknown
0.15265384599999976,5.308851213502016e-06,2.750458753207347e-06,2.9928867000318694e-06,2.169135301194952e-05,1.7983686377788713e-05,2.6860408852413165e-05,Unknown
0.15317307699999994,5.325970065909063e-06,2.751199301130078e-06,2.9951733726636195e-06,2.178365749300307e-05,1.7968650768246045e-05,2.687479115176101e-05,Unknown
0.1536923080000001,5.324890562648953e-06,2.751119138344517e-06,3.0019628669236843e-06,2.1873590599248488e-05,1.7933391710378407e-05,2.6883492608821457e-05,Unknown
0.1542115380000002,5.32195033914014e-06,2.753435277432725e-06,3.010673085461976e-06,2.1962415789618485e-05,1.792008415092366e-05,2.688755162171701e-05,Unknown
0.15473076900000038,5.32747658732635e-06,2.7658485701688696e-06,3.0157812152505915e-06,2.205011379545727e-05,1.7919889953941117e-05,2.6890019878950647e-05,Unknown
0.15524999999999967,5.33860458469395e-06,2.7745901536235783e-06,3.0182607807474973e-06,2.2135586012695557e-05,1.7921397018569147e-05,2.689429459416176e-05,Unknown
0.15576923099999984,5.345094188770502e-06,2.7585932788387567e-06,3.0166976914278347e-06,2.2217478982424887e-05,1.7922007947118816e-05,2.690278405368077e-05,Unknown
0.15628846200000002,5.347911599250796e-06,2.727931250431205e-06,3.0030202466179832e-06,2.229515174495275e-05,1.7923426429631285e-05,2.691717084843516e-05,Unknown
0.1568076920000001,5.353055035512682e-06,2.7087463581609484e-06,2.9774501161123023e-06,2.2368361294863347e-05,1.79550189993656e-05,2.6936188088923293e-05,Unknown
0.15732692300000028,5.370188983163138e-06,2.706094393251441e-06,2.9519694996287626e-06,2.243681789119564e-05,1.802714818407333e-05,2.6954494818279053e-05,Unknown
0.15784615399999957,5.4108243586650754e-06,2.7072986213339464e-06,2.9371275843214493e-06,2.2500017536713063e-05,1.8082809394359628e-05,2.6968608823160428e-05,Unknown
0.15836538499999975,5.451070121197248e-06,2.706108192722035e-06,2.932863456830686e-06,2.2556654462483192e-05,1.80921940213494e-05,2.697918965656333e-05,Unknown
0.15888461499999984,5.459981251630904e-06,2.706224680431195e-06,2.9334422419190083e-06,2.2604034880566804e-05,1.8089759927163703e-05,2.6987894930232948e-05,Unknown
0.15940384600000002,5.4515885991360905e-06,2.70882699903724e-06,2.934951411144503e-06,2.263913063673585e-05,1.8084396784446552e-05,2.699565895500755e-05,Unknown
0.1599230770000002,5.439724283363205e-06,2.710977609797856e-06,2.9368997586883265e-06,2.266140015015845e-05,1.808149319669372e-05,2.700238316152442e-05,Unknown
0.16044230800000037,5.431925056172346e-06,2.7127995218245645e-06,2.939470126624856e-06,2.2673983240004604e-05,1.809417869830901e-05,2.7008155110708985e-05,Unknown
0.16096153799999957,5.442743696103268e-06,2.715276031527045e-06,2.942268277731228e-06,2.268139014541302e-05,1.809694352385765e-05,2.701407337941676e-05,Unknown
0.16148076899999975,5.448217863589646e-06,2.714785738777076e-06,2.9448298287901847e-06,2.2686969900957965e-05,1.8108263286409537e-05,2.7020928719533225e-05,Unknown
0.16199999999999992,5.444222356969304e-06,2.70848459519064e-06,2.9470934335077724e-06,2.2692542809907258e-05,1.819886312051477e-05,2.70276380547803e-05,Unknown
0.1625192310000001,5.459420883488581e-06,2.703311024123684e-06,2.947838977377028e-06,2.2698829731634784e-05,1.8363231762611405e-05,2.703177466249038e-05,Unknown
0.16303846200000027,5.468011670862679e-06,2.7083319700256567e-06,2.941851087004993e-06,2.2705562362777395e-05,1.853255987318294e-05,2.70327881882576e-05,Unknown
0.16355769200000037,5.457772468581913e-06,2.720844363645564e-06,2.931689449459035e-06,2.2711874173540186e-05,1.866992265086028e-05,2.7032741878157432e-05,Unknown
0.16407692299999965,5.458647897186689e-06,2.725164859270797e-06,2.9345002983553427e-06,2.2716983687742963e-05,1.8761441248572916e-05,2.703304834466716e-05,Unknown
0.16459615399999983,5.46101842351904e-06,2.704137180496097e-06,2.950296939516358e-06,2.2720172856393437e-05,1.878672658647116e-05,2.703357543832023e-05,Unknown
0.165115385,5.456756752725655e-06,2.6533595151564665e-06,2.9572126783696616e-06,2.2721176283023147e-05,1.879415987580544e-05,2.703447374121009e-05,Unknown
0.1656346150000001,5.45866008374377e-06,2.588820519413718e-06,2.9479486806351766e-06,2.2721178088441277e-05,1.897377877718571e-05,2.703697317985269e-05,Unknown
0.16615384600000027,5.458232842208481e-06,2.535585583819997e-06,2.928516699297192e-06,2.2721509423375718e-05,1.9415110570486828e-05,2.704301958944128e-05,Unknown
0.16667307699999956,5.458729515466351e-06,2.502981768393509e-06,2.904629872940972e-06,2.272180695567421e-05,1.9902586506766338e-05,2.705386686391954e-05,Unknown
0.16719230799999973,5.471742180143133e-06,2.484426957471722e-06,2.89014641116873e-06,2.2721561134015387e-05,2.021549668784375e-05,2.70685621724012e-05,Unknown
0.16771153799999983,5.4788854043333966e-06,2.4723718680915226e-06,2.892490123807728e-06,2.272102530782138e-05,2.033217156347612e-05,2.708403511075975e-05,Unknown
0.168230769,5.4735783682302e-06,2.461455889843926e-06,2.900257384629737e-06,2.2720131159663008e-05,2.0334495152612263e-05,2.7096756944337715e-05,Unknown
0.16875000000000018,5.4701315740753935e-06,2.4515014238933647e-06,2.9037565225180925e-06,2.2720739161213552e-05,2.0398315953022084e-05,2.7105324896653278e-05,Unknown
0.16926923100000035,5.472267583583328e-06,2.4456933963129303e-06,2.9030913153215635e-06,2.272697641805328e-05,2.0714227305254804e-05,2.7110667671823692e-05,Unknown
0.16978846199999964,5.484582948255314e-06,2.443000761092057e-06,2.8986014014866822e-06,2.2739718690310816e-05,2.1148557146602608e-05,2.7113687763592872e-05,Unknown
0.17030769199999973,5.496034362710514e-06,2.4405901298702163e-06,2.8892566730804515e-06,2.2754768656346197e-05,2.137160932813909e-05,2.7115234770891194e-05,Unknown
0.1708269229999999,5.494202346637182e-06,2.43980787357774e-06,2.8767422464365075e-06,2.2767938124183904e-05,2.139102479306224e-05,2.7116611181673108e-05,Unknown
0.17134615400000008,5.492550226849536e-06,2.4415353660699323e-06,2.8699364889930644e-06,2.2778781961485338e-05,2.140124463756939e-05,2.7118866831846937e-05,Unknown
0.17186538500000026,5.496922823639925e-06,2.443103110860998e-06,2.8799917750032897e-06,2.278891288252237e-05,2.1431865510648268e-05,2.7123056734674875e-05,Unknown
0.17238461500000035,5.5138105554596745e-06,2.444817716009884e-06,2.9008079578635228e-06,2.279970293673799e-05,2.1458852494372424e-05,2.7130766858737555e-05,Unknown
0.17290384599999964,5.559026613202828e-06,2.4483870149807755e-06,2.916498314897325e-06,2.28120607067464e-05,2.149568446798536e-05,2.7143313194726112e-05,Unknown
0.17342307699999981,5.604159950284547e-06,2.45237119430264e-06,2.923483547219664e-06,2.282624138717768e-05,2.1547688771152708e-05,2.715989564509375e-05,Unknown
0.173942308,5.606609586952498e-06,2.454902143559567e-06,2.926493828079485e-06,2.2841106134988887e-05,2.156321972973956e-05,2.717734695066936e-05,Unknown
0.17446153800000008,5.5941140963365125e-06,2.456249864386842e-06,2.92721593654139e-06,2.2854455907474816e-05,2.159595347406298e-05,2.7192303210224144e-05,Unknown
0.17498076900000026,5.59579121782968e-06,2.455337043570864e-06,2.9266438444871954e-06,2.286493797205093e-05,2.190526341853876e-05,2.7203445207126208e-05,Unknown
0.17549999999999955,5.5924307521588125e-06,2.446650989995878e-06,2.927846573604776e-06,2.287281791233633e-05,2.2473428820124483e-05,2.7211530643067855e-05,Unknown
0.17601923099999972,5.587745029122333e-06,2.4245167468052647e-06,2.9264903857137024e-06,2.2878905130197765e-05,2.2931707580566572e-05,2.721826790739712e-05,Unknown
0.1765384619999999,5.582057337246471e-06,2.4016471651036827e-06,2.916212164599294e-06,2.2882866526410456e-05,2.313564962344815e-05,2.722674515922931e-05,Unknown
0.177057692,5.5595350317876055e-06,2.4077079951977163e-06,2.9073900266974096e-06,2.2883459605281907e-05,2.32053491384284e-05,2.724085742236141e-05,Unknown
0.17757692300000016,5.5380604050943085e-06,2.457750252236701e-06,2.9127562588062405e-06,2.2882126513364315e-05,2.324045364043605e-05,2.7260504016495714e-05,Unknown
0.17809615400000034,5.52715443084052e-06,2.5476178514325925e-06,2.920932637352333e-06,2.2881816974986963e-05,2.3270815969039277e-05,2.727999403817117e-05,Unknown
0.17861538499999963,5.514433018030699e-06,2.652328984449931e-06,2.921200608714172e-06,2.288313520458923e-05,2.330175893448756e-05,2.7294336176607924e-05,Unknown
0.17913461499999972,5.498063245235049e-06,2.7295364596167786e-06,2.9222973484632653e-06,2.288620428754048e-05,2.334702746873693e-05,2.7303013458168285e-05,Unknown
0.1796538459999999,5.491839311005885e-06,2.7612524014140883e-06,2.924337803401815e-06,2.2890912549083844e-05,2.342617491205805e-05,2.7307246721459555e-05,Unknown
0.18017307700000007,5.50491025401812e-06,2.765575547079095e-06,2.922081029312616e-06,2.2895477553665883e-05,2.3504088516256984e-05,2.730814948085984e-05,Unknown
0.18069230800000025,5.500929887125467e-06,2.7618110640671285e-06,2.922966461251841e-06,2.289898668354737e-05,2.3517484894610245e-05,2.730832873950435e-05,Unknown
0.18121153800000034,5.466539178607667e-06,2.758808983963581e-06,2.927656695402822e-06,2.290220071509257e-05,2.3529614047501653e-05,2.7311923591672143e-05,Unknown
0.18173076899999963,5.444036604025595e-06,2.7597526697273806e-06,2.928845843504179e-06,2.290555867663633e-05,2.3550722478151107e-05,2.732116375567732e-05,Unknown
0.1822499999999998,5.442185838981668e-06,2.7600916646690653e-06,2.921763191442238e-06,2.2908610301076804e-05,2.3566204865776623e-05,2.7337162081185485e-05,Unknown
0.18276923099999998,5.440843510080058e-06,2.7662064860208704e-06,2.905199809576004e-06,2.291092695997132e-05,2.381784113284232e-05,2.73643111081539e-05,Unknown
0.18328846200000015,5.434447746059346e-06,2.786771009657696e-06,2.889330392960383e-06,2.2912935362187817e-05,2.4145589884936304e-05,2.7410287270243512e-05,Unknown
0.18380769200000024,5.428303737467909e-06,2.8089507813471884e-06,2.8860017108427923e-06,2.2915377331734112e-05,2.4186934174569567e-05,2.7479202454248054e-05,Unknown
0.18432692299999953,5.425004330486758e-06,2.821111376979697e-06,2.890003941887362e-06,2.291805898898044e-05,2.428661852250163e-05,2.756549139161728e-05,Unknown
0.1848461539999997,5.414232009770969e-06,2.825820631908174e-06,2.8877870380743126e-06,2.291972648815026e-05,2.458366031559959e-05,2.765907087030228e-05,Unknown
0.18536538499999988,5.391992457044052e-06,2.8270718805998222e-06,2.881620504797013e-06,2.291990059589327e-05,2.4686545073223533e-05,2.7753329951498703e-05,Unknown
0.18588461499999998,5.369712467233504e-06,2.825944141370653e-06,2.8781672497872637e-06,2.291935592557813e-05,2.470161231603424e-05,2.784381878527106e-05,Unknown
0.18640384600000015,5.3598426989212445e-06,2.823606674447173e-06,2.8761862729570264e-06,2.291887557346852e-05,2.490006191582877e-05,2.7923205507392357e-05,Unknown
0.18692307700000033,5.386271253231435e-06,2.821965244384114e-06,2.8776039357700632e-06,2.2918830046622577e-05,2.5089869939409632e-05,2.7982798370445557e-05,Unknown
0.1874423079999996,5.51070702792579e-06,2.821524475029932e-06,2.886056963725425e-06,2.2918961570671933e-05,2.51175978575433e-05,2.8019088514721337e-05,Unknown
0.1879615379999997,5.763515111205509e-06,2.8222542939985783e-06,2.8956239880395777e-06,2.291951654910106e-05,2.5139025210694105e-05,2.803688571670447e-05,Unknown
0.18848076899999988,6.035029070524704e-06,2.823902161881866e-06,2.897464080717125e-06,2.292088156129088e-05,2.524902686073581e-05,2.804570467601052e-05,Unknown
0.18900000000000006,6.195059124822826e-06,2.824679148957309e-06,2.8946297163637414e-06,2.2921841421486946e-05,2.539017469378138e-05,2.805165727769089e-05,Unknown
0.18951923100000023,6.250909125543812e-06,2.82365697993477e-06,2.8926156058745554e-06,2.292175806821528e-05,2.55563626794314e-05,2.805558715775673e-05,Unknown
0.1900384620000004,6.271773741755467e-06,2.822325015342247e-06,2.891070323277032e-06,2.292157711550752e-05,2.585305849999368e-05,2.805867963534728e-05,Unknown
0.1905576919999996,6.30365308385602e-06,2.8209510086810445e-06,2.887868478358543e-06,2.292157489132064e-05,2.642281023838588e-05,2.806242526814716e-05,Unknown
0.1910769229999998,6.385674966721517e-06,2.8201550476557973e-06,2.883859515043165e-06,2.292158410297627e-05,2.72028050698745e-05,2.806567965567046e-05,Unknown
0.19159615399999996,6.491610435365263e-06,2.822606546115773e-06,2.88673955214574e-06,2.29216494744099e-05,2.7824654081723134e-05,2.806719513981656e-05,Unknown
0.19211538500000014,6.5376260520768495e-06,2.82838526317327e-06,2.90136031035336e-06,2.292163152934486e-05,2.803093145150887e-05,2.806759396500412e-05,Unknown
0.19263461500000023,6.516782662608592e-06,2.8319373940201046e-06,2.9234555327929885e-06,2.29219605105736e-05,2.8030367504648723e-05,2.806761097307658e-05,Unknown
0.1931538460000004,6.486892103101313e-06,2.8279936677508374e-06,2.945960975308728e-06,2.292310884791179e-05,2.81535473981849e-05,2.8067464596627524e-05,Unknown
0.1936730769999997,6.469375079066517e-06,2.8193784082215115e-06,2.962465833835252e-06,2.2924257836778023e-05,2.8336315281867543e-05,2.806735040200484e-05,Unknown
0.19419230799999987,6.460705934188855e-06,2.8132283482372187e-06,2.9702265475388817e-06,2.292465394845857e-05,2.8380321988505272e-05,2.8068230695534808e-05,Unknown
0.19471153799999996,6.4597142711850445e-06,2.812418902128825e-06,2.973266695724395e-06,2.2924785000341612e-05,2.8395646579519365e-05,2.807125564535951e-05,Unknown
0.19523076900000014,6.460220218704245e-06,2.8147792551637056e-06,2.97733233405507e-06,2.292505379812502e-05,2.851304614655885e-05,2.8075121307542324e-05,Unknown
0.1957500000000003,6.45976917328016e-06,2.8172542061412146e-06,2.9835768788081583e-06,2.292539612680756e-05,2.8637445809665104e-05,2.8077652552518164e-05,Unknown
0.1962692309999996,6.460690957466112e-06,2.817973443048003e-06,2.991541836218433e-06,2.292579580995872e-05,2.869831119622397e-05,2.807908104036778e-05,Unknown
0.19678846199999978,6.462654929528384e-06,2.8161515639397576e-06,3.000731642238829e-06,2.2926292580834367e-05,2.872926440200268e-05,2.808093967515068e-05,Unknown
0.19730769199999987,6.461391970039035e-06,2.8125133708871397e-06,3.0075033490687327e-06,2.29268449121698e-05,2.8772649935958217e-05,2.808508977852761e-05,Unknown
0.19782692300000004,6.458092350636136e-06,2.8102629791505034e-06,3.0096592309165827e-06,2.2926802304347518e-05,2.885131479335066e-05,2.8093007126981676e-05,Unknown
0.19834615400000022,6.469534920334874e-06,2.8151751648572065e-06,3.009826113990063e-06,2.292563901352735e-05,2.894646274728676e-05,2.8103265586238947e-05,Unknown
0.1988653850000004,6.502666610696947e-06,2.8300538625894485e-06,3.0095555563772207e-06,2.292479728150103e-05,2.901966936252549e-05,2.8112579269076985e-05,Unknown
0.1993846149999996,6.529885610243605e-06,2.848924381169846e-06,3.0087458774906773e-06,2.29256142689024e-05,2.905853909143552e-05,2.8119631067004117e-05,Unknown
0.19990384599999977,6.535215692817816e-06,2.86225829504985e-06,3.0084092905928742e-06,2.2926752253434424e-05,2.907292041589657e-05,2.8125676699503537e-05,Unknown
0.20042307699999995,6.5352272820027454e-06,2.8616810584357004e-06,3.009836213422132e-06,2.2926750176630275e-05,2.907453384478274e-05,2.813294935974916e-05,Unknown
0.20094230800000012,6.536422515318056e-06,2.848661964304149e-06,3.0134624600429656e-06,2.2926127746066465e-05,2.907566764968069e-05,2.8143408359827037e-05,Unknown
0.20146153800000022,6.540499512225188e-06,2.83889322750555e-06,3.0184367555752377e-06,2.2926038055177215e-05,2.909138854465861e-05,2.815685138314401e-05,Unknown
0.2019807690000004,6.559002916771695e-06,2.839420958032585e-06,3.022222407246665e-06,2.292634013608203e-05,2.9124725847065227e-05,2.817029884618017e-05,Unknown
0.20249999999999968,6.624447649632491e-06,2.8432244287821462e-06,3.0226788485282667e-06,2.2926569187859734e-05,2.915928789039169e-05,2.8181357110496156e-05,Unknown
0.20301923099999986,6.76588129027026e-06,2.8470663807016387e-06,3.022337860245604e-06,2.2927416976318416e-05,2.9182999282110156e-05,2.8190966487789007e-05,Unknown
0.20353846200000003,6.939773543214093e-06,2.8526512396658954e-06,3.024251215387317e-06,2.292953955795036e-05,2.9198709493421256e-05,2.820235459602978e-05,Unknown
0.20405769200000012,7.081264538387199e-06,2.862503291262964e-06,3.0248021678702067e-06,2.2932814632607648e-05,2.9211732403642043e-05,2.821826516968547e-05,Unknown
0.2045769230000003,7.179611998986702e-06,2.8784229416830626e-06,3.022686865473367e-06,2.2936405858900448e-05,2.9224967281046594e-05,2.82366154471596e-05,Unknown
0.2050961539999996,7.24983172129661e-06,2.8987887822954843e-06,3.0241196440273186e-06,2.2939117198444853e-05,2.923901293822425e-05,2.825094720092664e-05,Unknown
0.20561538499999976,7.2990084156509555e-06,2.9180708409896976e-06,3.0361523728869835e-06,2.29400771336181e-05,2.925892618128312e-05,2.8258026279492196e-05,Unknown
0.20613461499999985,7.325468627327715e-06,2.9310233556448183e-06,3.062951090717013e-06,2.2939750710426357e-05,2.9298589343839636e-05,2.826013344337368e-05,Unknown
0.20665384600000003,7.3303803203622835e-06,2.936757136348412e-06,3.1003337033662458e-06,2.2940643840285733e-05,2.9373635905188148e-05,2.8260169833671656e-05,Unknown
0.2071730770000002,7.331655421535533e-06,2.936995884227264e-06,3.1383958910960128e-06,2.294481534127169e-05,2.951432651286454e-05,2.825935684638449e-05,Unknown
0.20769230800000038,7.344496055447943e-06,2.935422150028013e-06,3.169695565751256e-06,2.2952229679622275e-05,2.977771779314819e-05,2.8258423465824787e-05,Unknown
0.20821153799999959,7.358748713528054e-06,2.9354046749099765e-06,3.1830523163171426e-06,2.2962608436189592e-05,3.015780127154084e-05,2.8258689120183595e-05,Unknown
0.20873076899999976,7.363490761939959e-06,2.9342144593239662e-06,3.175436528404244e-06,2.2976132071062533e-05,3.0456767328036923e-05,2.8262051595417512e-05,Unknown
0.20924999999999994,7.363269617722117e-06,2.9279044792145537e-06,3.17529407821624e-06,2.2991517011210245e-05,3.0508381041303236e-05,2.8267604973830257e-05,Unknown
0.2097692310000001,7.363466753569533e-06,2.9190990230225197e-06,3.2023197003461905e-06,2.30052969036788e-05,3.05572631594596e-05,2.826988609223093e-05,Unknown
0.2102884620000003,7.364108805305846e-06,2.913085154229321e-06,3.238960246716154e-06,2.301522658128205e-05,3.0863898099767026e-05,2.8269974879761105e-05,Unknown
0.21080769200000038,7.363987515165826e-06,2.9128193522425646e-06,3.2713981756326336e-06,2.3022112151941397e-05,3.1189301530173825e-05,2.82852152335529e-05,Unknown
0.21132692299999967,7.369369525246632e-06,2.918342208352272e-06,3.2932818369448666e-06,2.3027770770889857e-05,3.130163775992041e-05,2.8331178326861104e-05,Unknown
0.21184615399999984,7.386104431834111e-06,2.923204312842453e-06,3.301809924588023e-06,2.30342888146139e-05,3.130685395755592e-05,2.8393100811555112e-05,Unknown
0.21236538500000002,7.401759961588205e-06,2.921577980950869e-06,3.307393776674448e-06,2.304235839293812e-05,3.130517740195644e-05,2.8435114932147093e-05,Unknown
0.2128846150000001,7.40478210667352e-06,2.9202585107902634e-06,3.309177647042008e-06,2.304922089246833e-05,3.1303890843155335e-05,2.844503171755141e-05,Unknown
0.21340384600000029,7.40199523012966e-06,2.919790044059306e-06,3.3031761976395805e-06,2.3052729701775497e-05,3.1313173588313486e-05,2.844396035729813e-05,Unknown
0.21392307699999957,7.3975463824407636e-06,2.9043305170012336e-06,3.302001215924604e-06,2.3054280031418037e-05,3.133209639148098e-05,2.8446564018468867e-05,Unknown
0.21444230799999975,7.3957511429187e-06,2.873367885049368e-06,3.309377839724694e-06,2.305587213888991e-05,3.134372225512996e-05,2.844911534974996e-05,Unknown
0.21496153799999984,7.401514277654692e-06,2.8465876058051804e-06,3.317563859527857e-06,2.305804109314905e-05,3.134372445425817e-05,2.844944207955687e-05,Unknown
0.21548076900000002,7.402909386669912e-06,2.8316759475764983e-06,3.324934873957598e-06,2.305973574228393e-05,3.137248022557955e-05,2.8449015048746684e-05,Unknown
0.2160000000000002,7.400122788137491e-06,2.822098813700445e-06,3.3291158369125597e-06,2.306003650511056e-05,3.1463142409651454e-05,2.8447989258394068e-05,Unknown
0.21651923100000037,7.406469220140841e-06,2.8171780254238563e-06,3.326681119861132e-06,2.3060090041501527e-05,3.154367091812022e-05,2.8445572312452525e-05,Unknown
0.21703846199999965,7.415194212725611e-06,2.823656826383798e-06,3.3235949674912544e-06,2.3061115757329007e-05,3.156368476228036e-05,2.8440357360947616e-05,Unknown
0.21755769199999975,7.418720366270107e-06,2.838477527075422e-06,3.3249229881419336e-06,2.306238252173118e-05,3.156944759991046e-05,2.843076419844933e-05,Unknown
0.21807692299999992,7.428739821076991e-06,2.848220066302691e-06,3.3223075365110274e-06,2.306316094798068e-05,3.16620793943015e-05,2.842110681811107e-05,Unknown
0.2185961540000001,7.455119943149775e-06,2.8504377784583277e-06,3.308950431724413e-06,2.3063774348162796e-05,3.2190721162121206e-05,2.8418715691704995e-05,Unknown
0.21911538500000027,7.4895431635790275e-06,2.851491901236654e-06,3.293472193459931e-06,2.306413196720525e-05,3.3134476999455707e-05,2.842017404466104e-05,Unknown
0.21963461500000037,7.51637901911964e-06,2.858288533540017e-06,3.2873497246699817e-06,2.306398738403972e-05,3.3703818025537166e-05,2.8414736124440852e-05,Unknown
0.22015384599999965,7.528885924543297e-06,2.876236746191767e-06,3.288998122510268e-06,2.306396168308631e-05,3.373425384790689e-05,2.838829577534825e-05,Unknown
0.22067307699999983,7.532007819495234e-06,2.896054902102824e-06,3.287521672355783e-06,2.3064211177793976e-05,3.387430710209488e-05,2.8331720826554265e-05,Unknown
0.221192308,7.5308139683242415e-06,2.902665234048981e-06,3.2814219260162306e-06,2.3064098875701936e-05,3.420442793538818e-05,2.826678098078015e-05,Unknown
0.2217115380000001,7.52505460048383e-06,2.901480734231693e-06,3.278551506996758e-06,2.30635473183349e-05,3.4384740641838856e-05,2.822671050667708e-05,Unknown
0.22223076900000027,7.525258531404061e-06,2.907948553970125e-06,3.280285183865971e-06,2.306240676563471e-05,3.441718678637241e-05,2.821287856026014e-05,Unknown
0.22274999999999956,7.533883176588584e-06,2.918499884044339e-06,3.2828207891319343e-06,2.3059859952201283e-05,3.4421538014361064e-05,2.820631297375232e-05,Unknown
0.22326923099999973,7.515925162112405e-06,2.922077116539725e-06,3.2834420773539317e-06,2.3055929414318075e-05,3.443782189294972e-05,2.819119711013004e-05,Unknown
0.2237884619999999,7.465199537683079e-06,2.9213214124621484e-06,3.282686394791711e-06,2.305213497946719e-05,3.448048328086673e-05,2.816524557110611e-05,Unknown
0.224307692,7.437914675125158e-06,2.921109104705688e-06,3.2832396692599506e-06,2.304986247786885e-05,3.452431556166278e-05,2.814710706325173e-05,Unknown
0.22482692300000018,7.473671289779685e-06,2.92179819125124e-06,3.2849527128993392e-06,2.304904901171853e-05,3.4544846700216965e-05,2.8146110827091747e-05,Unknown
0.22534615400000035,7.558830962937391e-06,2.9271135663650528e-06,3.2849016915689228e-06,2.304922353901364e-05,3.4549369030652056e-05,2.813371601508695e-05,Unknown
0.22586538499999964,7.650252037898894e-06,2.9366674351598325e-06,3.2825020304160667e-06,2.3050238837001545e-05,3.455153690134789e-05,2.806921356455756e-05,Unknown
0.22638461499999973,7.710133426401096e-06,2.9449927867525444e-06,3.284072311945126e-06,2.30504720376556e-05,3.45638037952317e-05,2.793429754316231e-05,Unknown
0.2269038459999999,7.73244059318035e-06,2.953785612813384e-06,3.2956416426487327e-06,2.3047152643383425e-05,3.459897975517759e-05,2.7735789110779773e-05,Unknown
0.22742307700000008,7.732061072566453e-06,2.9651961845484565e-06,3.313818085085941e-06,2.30401588082519e-05,3.464731403890468e-05,2.7489497480212868e-05,Unknown
0.22794230800000026,7.727793061585423e-06,2.976394221072508e-06,3.330686378720315e-06,2.303262247722465e-05,3.467417552128421e-05,2.7205773329685168e-05,Unknown
0.22846153800000035,7.728023476211319e-06,2.9825992791390185e-06,3.3402123574988834e-06,2.302686768642715e-05,3.4673243494387005e-05,2.6892902761284465e-05,Unknown
0.22898076899999964,7.72167844259373e-06,2.9763682137858e-06,3.344682311600359e-06,2.302174992863457e-05,3.467854301916649e-05,2.657928618154554e-05,Unknown
0.22949999999999982,7.69361430693272e-06,2.9638750781763465e-06,3.3525914365580187e-06,2.3014246828638468e-05,3.4699733220033646e-05,2.6319625767910237e-05,Unknown
0.230019231,7.647253923114045e-06,2.960093968506944e-06,3.357405476137073e-06,2.300161643472701e-05,3.4711179810725635e-05,2.6158901143367476e-05,Unknown
0.23053846200000017,7.606712604118268e-06,2.9622796165219508e-06,3.349733044769985e-06,2.2983021992412425e-05,3.470662197950555e-05,2.6099841899986905e-05,Unknown
0.23105769200000026,7.587788507387297e-06,2.963817173080721e-06,3.3462477242859496e-06,2.2961810913753155e-05,3.4704185380510515e-05,2.609861326372825e-05,Unknown
0.23157692299999955,7.582917216084694e-06,2.962748308191005e-06,3.358255399788858e-06,2.294389252207051e-05,3.471356694606162e-05,2.605031568268869e-05,Unknown
0.23209615399999972,7.580777677551278e-06,2.9610020605948128e-06,3.3714934797220062e-06,2.293218861527476e-05,3.4732750571070925e-05,2.584093079248189e-05,Unknown
0.2326153849999999,7.580734346741655e-06,2.967413432451217e-06,3.3807706593897888e-06,2.292512210966317e-05,3.475975947841254e-05,2.553074771026404e-05,Unknown
0.233134615,7.583338085946513e-06,2.9779499846929305e-06,3.389238047416432e-06,2.291892440651834e-05,3.479228864212589e-05,2.5323364431425936e-05,Unknown
0.23365384600000016,7.583325097547756e-06,2.9841880314599123e-06,3.3905398139092067e-06,2.2910640322791327e-05,3.4820831428340166e-05,2.5259675745880584e-05,Unknown
0.23417307700000034,7.584061101724525e-06,2.9848802900097886e-06,3.387623474295881e-06,2.29008268745666e-05,3.4833578582925667e-05,2.524520557106821e-05,Unknown
0.23469230799999963,7.58663176844934e-06,2.9789133338156868e-06,3.391985981422961e-06,2.289223996118811e-05,3.4831073778784405e-05,2.5237130316589397e-05,Unknown
0.23521153799999972,7.585612914589522e-06,2.9721146828073838e-06,3.3967308637333512e-06,2.2887350049520772e-05,3.4824595965714865e-05,2.5237172142741816e-05,Unknown
0.2357307689999999,7.5855301388418545e-06,2.972066833927367e-06,3.3948381493016317e-06,2.288643562708616e-05,3.48210347738012e-05,2.514359961435342e-05,Unknown
0.23625000000000007,7.585792343454852e-06,2.977516761899484e-06,3.3972247063869525e-06,2.288677729206496e-05,3.481985841595517e-05,2.4588895693258734e-05,Unknown
0.23676923100000025,7.585233304073286e-06,2.984560476235553e-06,3.401068418673846e-06,2.288659148459265e-05,3.481950957792656e-05,2.3483821485890677e-05,Unknown
0.23728846199999953,7.598457375593438e-06,2.990835480217849e-06,3.4003781319520685e-06,2.2886348501212247e-05,3.482053341842527e-05,2.2438379464046225e-05,Unknown
0.23780769199999963,7.638177845459033e-06,2.996378268518216e-06,3.407693673285851e-06,2.2886477809152108e-05,3.483808919293986e-05,2.190834094766077e-05,Unknown
0.2383269229999998,7.688646373991393e-06,3.0032637522635e-06,3.421859487452593e-06,2.2887293820179924e-05,3.492057870262786e-05,2.1700007436535544e-05,Unknown
0.23884615399999998,7.72535608626461e-06,3.010613089935757e-06,3.433557947106674e-06,2.2887693283440164e-05,3.509060311579397e-05,2.152783918430472e-05,Unknown
0.23936538500000015,7.748948376353805e-06,3.015049179205975e-06,3.4452898386417207e-06,2.288577885410213e-05,3.5242110237993104e-05,2.123325331815112e-05,Unknown
0.23988461500000025,7.773331851733118e-06,3.016397695925255e-06,3.459719017587578e-06,2.2881954927341052e-05,3.52773496378898e-05,2.085905440380577e-05,Unknown
0.24040384599999953,7.808302487299942e-06,3.019276471220742e-06,3.4837251476624044e-06,2.287733398350924e-05,3.528245678304562e-05,2.0665815758877928e-05,Unknown
0.2409230769999997,7.84636651468792e-06,3.02732749693891e-06,3.511467539857698e-06,2.287085942313694e-05,3.532964994007433e-05,2.066487743549697e-05,Unknown
0.24144230799999988,7.870788832133861e-06,3.038441953531016e-06,3.516693367688617e-06,2.2857731640231396e-05,3.536015003933736e-05,2.047731777739742e-05,Unknown
0.24196153799999998,7.882561982289574e-06,3.049980441431117e-06,3.49907755676227e-06,2.2831061298708096e-05,3.53507975671321e-05,1.9951135316838724e-05,Unknown
0.24248076900000015,7.893026241338164e-06,3.05851475104463e-06,3.4864550681242314e-06,2.2791231711036764e-05,3.531966301149875e-05,1.9434905796216903e-05,Unknown
0.24300000000000033,7.907990456112799e-06,3.055936269958917e-06,3.49279891295258e-06,2.2749330896014014e-05,3.527988246630053e-05,1.9203183179135928e-05,Unknown
0.24351923099999961,7.92335068242284e-06,3.038526973795324e-06,3.5017679510643177e-06,2.271558698124278e-05,3.5285321661049384e-05,1.9136577567702863e-05,Unknown
0.2440384619999998,7.926411229119898e-06,3.016292783165189e-06,3.4893285031153747e-06,2.26896067997206e-05,3.536195108040136e-05,1.9060403107144057e-05,Unknown
0.24455769199999988,7.91729469740642e-06,3.003777830516977e-06,3.464433746991234e-06,2.2664491606259338e-05,3.545494053691219e-05,1.8745990778198627e-05,Unknown
0.24507692300000006,7.909843369191452e-06,3.0020416918949707e-06,3.450961036140545e-06,2.263539601796453e-05,3.551660956886506e-05,1.7853767235485396e-05,Unknown
0.24559615400000023,7.907784667626853e-06,3.001757031762792e-06,3.4483763767966376e-06,2.2601569933770496e-05,3.555034001937735e-05,1.6387563186467372e-05,Unknown
0.2461153850000004,7.90759356217391e-06,3.001395803654225e-06,3.449851819918281e-06,2.256464785733164e-05,3.557412558705988e-05,1.4902988161513713e-05,Unknown
0.2466346149999996,7.907842104026841e-06,3.004099037634274e-06,3.4553191658634715e-06,2.25250700590917e-05,3.558542539470352e-05,1.3988986594906336e-05,Unknown
0.2471538459999998,7.905908947994027e-06,3.008302004990098e-06,3.4576801779575804e-06,2.247756446815618e-05,3.556132483824171e-05,1.3687635149124087e-05,Unknown
0.24767307699999996,7.902300626310976e-06,3.0129280428206367e-06,3.4543185631395358e-06,2.2415862437121608e-05,3.550486913392882e-05,1.36597069436925e-05,Unknown
0.24819230800000014,7.900136417663065e-06,3.018078184623792e-06,3.454607370115551e-06,2.2339113895109687e-05,3.5465384108844944e-05,1.3657332817311887e-05,Unknown
0.24871153800000023,7.899812996998799e-06,3.022225928118516e-06,3.456809177472662e-06,2.2250215502991163e-05,3.546664795568453e-05,1.3627095845398396e-05,Unknown
0.2492307690000004,7.903561933276536e-06,3.0200037639015214e-06,3.4540045945261424e-06,2.2154104226596858e-05,3.547111256055521e-05,1.35989517164451e-05,Unknown
0.2497499999999997,7.911927569768687e-06,3.0111971044832227e-06,3.4520793264707145e-06,2.20560056863394e-05,3.546459012416491e-05,1.3595810707195589e-05,Unknown
0.25026923099999987,7.918161027526636e-06,3.0049804056199608e-06,3.452722876830905e-06,2.1956744525330515e-05,3.549018386937563e-05,1.3578463249620363e-05,Unknown
0.25078846200000005,7.918313445390651e-06,3.003426496110579e-06,3.4524907085197133e-06,2.184937420294461e-05,3.559172610248649e-05,1.3462988824905875e-05,Unknown
0.25130769200000014,7.916937106065816e-06,3.0025654584267527e-06,3.45262339007884e-06,2.17226929989376e-05,3.576416256407561e-05,1.3235067912215402e-05,Unknown
0.2518269230000003,7.919336387966854e-06,2.9987364470159534e-06,3.451006568940375e-06,2.15707543718433e-05,3.594032355107496e-05,1.2997684251401924e-05,Unknown
0.2523461539999996,7.926940672786193e-06,2.9887587476588905e-06,3.446452151980312e-06,2.1398680272518998e-05,3.6021003143961084e-05,1.285290582150462e-05,Unknown
0.2528653849999998,7.934124467949577e-06,2.980447474195304e-06,3.443286788613237e-06,2.121647104364093e-05,3.5986555318262854e-05,1.2802532878717955e-05,Unknown
0.25338461499999987,7.935027451037663e-06,2.97976039033799e-06,3.4405808570894785e-06,2.102875224833108e-05,3.597494631601609e-05,1.2794408308770016e-05,Unknown
0.25390384600000004,7.934288013552673e-06,2.9780483654625047e-06,3.434021639687511e-06,2.0832285347902608e-05,3.6001784870585e-05,1.2794213984753527e-05,Unknown
0.2544230770000002,7.934271418156138e-06,2.97343568297739e-06,3.4284673767662867e-06,2.0620491142700503e-05,3.59540321491865e-05,1.279439740750921e-05,Unknown
0.2549423080000004,7.937258832589112e-06,2.9715277378162573e-06,3.4272837584050778e-06,2.039378807786034e-05,3.605281997241975e-05,1.2793784989429176e-05,Unknown
0.2554615379999996,7.944211109818128e-06,2.97112753170997e-06,3.4263764798963487e-06,2.0177766086823004e-05,3.646085478029675e-05,1.2789936617694934e-05,Unknown
0.2559807689999998,7.939131243483381e-06,2.971030083405201e-06,3.434385647117589e-06,2.0028735783507695e-05,3.674635304332663e-05,1.278623620501206e-05,Unknown
0.25649999999999995,7.926114187285651e-06,2.9721519522406542e-06,3.456206733771265e-06,1.9982739852781497e-05,3.657661560358767e-05,1.278617731780852e-05,Unknown
0.2570192310000001,7.928073620737634e-06,2.975005289168176e-06,3.4751144712574223e-06,1.998281946387513e-05,3.627528998920752e-05,1.278308870570908e-05,Unknown
0.2575384620000003,7.944538184523407e-06,2.9794277818453225e-06,3.4831290082332885e-06,1.991777519599126e-05,3.622889416278589e-05,1.2780504530768568e-05,Unknown
0.2580576920000004,7.981142760787665e-06,2.985696127448174e-06,3.489781824235963e-06,1.9742910887055347e-05,3.637073529618431e-05,1.2785433978282191e-05,Unknown
0.2585769229999997,8.039297269683789e-06,2.995679690301872e-06,3.4987230738740277e-06,1.949391770583634e-05,3.652088001939577e-05,1.2779602962927332e-05,Unknown
0.25909615399999986,8.086222945248068e-06,3.0056345556838107e-06,3.50456277953107e-06,1.9203617294104795e-05,3.661525560843191e-05,1.276463314701368e-05,Unknown
0.25961538500000003,8.107397012825732e-06,3.011916376201388e-06,3.507881751278373e-06,1.886744735982873e-05,3.654057137011824e-05,1.276151470322236e-05,Unknown
0.2601346150000001,8.11570079329344e-06,3.014966127374368e-06,3.509004403655432e-06,1.847266710946042e-05,3.624790514549085e-05,1.276041188060467e-05,Unknown
0.2606538460000003,8.11974034140761e-06,3.015809553360289e-06,3.5119867199011213e-06,1.802618239693553e-05,3.596650563421672e-05,1.275941086096996e-05,Unknown
0.2611730769999996,8.127545263606353e-06,3.03428781535739e-06,3.5271619704546955e-06,1.754430038854508e-05,3.590592977138632e-05,1.275007747827388e-05,Unknown
0.26169230799999976,8.139193197471079e-06,3.0870190463701357e-06,3.5408771403560625e-06,1.7023118410878795e-05,3.590959826457211e-05,1.2668580640255536e-05,Unknown
0.26221153799999986,8.145619521056774e-06,3.145234706306994e-06,3.5378907399776272e-06,1.6433789834599152e-05,3.580499680854168e-05,1.2500880586621668e-05,Unknown
0.26273076900000003,8.145902975766734e-06,3.177212262288028e-06,3.526077975533328e-06,1.5751306786653768e-05,3.5698404201338926e-05,1.233898517304569e-05,Unknown
0.2632500000000002,8.141678850088778e-06,3.186092172769158e-06,3.509200133843844e-06,1.4986650061581043e-05,3.566562214598575e-05,1.2242947222952664e-05,Unknown
0.2637692310000004,8.135119625966513e-06,3.185818234733291e-06,3.482134010927548e-06,1.419059844822714e-05,3.5660042030964776e-05,1.218258633704714e-05,Unknown
0.26428846199999967,8.139790300375863e-06,3.1851962523544773e-06,3.4421746449071835e-06,1.34281845747802e-05,3.568316552434135e-05,1.2106058758565365e-05,Unknown
0.26480769199999976,8.15622502069569e-06,3.1872384509609585e-06,3.405553222090147e-06,1.2745871721930072e-05,3.575930794732562e-05,1.1970736363209572e-05,Unknown
0.26532692299999994,8.163909722448774e-06,3.189476005365565e-06,3.390955697649939e-06,1.2155015297819092e-05,3.5843478369236e-05,1.1778616464026436e-05,Unknown
0.2658461540000001,8.160687459978573e-06,3.189026991641015e-06,3.389134530959248e-06,1.164208994234413e-05,3.584945056534005e-05,1.157748849531432e-05,Unknown
0.2663653850000003,8.158634034395789e-06,3.1866557600200297e-06,3.3918847648747744e-06,1.1193754269227403e-05,3.5810889166081114e-05,1.1400989054319172e-05,Unknown
0.2668846150000004,8.162854096470963e-06,3.18647753296033e-06,3.399978870128837e-06,1.0814563780357704e-05,3.585513149348003e-05,1.125326070548414e-05,Unknown
0.26740384599999967,8.176837115029767e-06,3.1913265533680133e-06,3.409096168671624e-06,1.0521292480562205e-05,3.6005934868404605e-05,1.11326798781517e-05,Unknown
0.26792307699999984,8.197421001944206e-06,3.1997163247073474e-06,3.417649928081328e-06,1.03211013572605e-05,3.618863926171293e-05,1.1037122284744648e-05,Unknown
0.268442308,8.213449354635069e-06,3.208692738186686e-06,3.4230333782253263e-06,1.0201266313311336e-05,3.634477895407407e-05,1.0953988765498e-05,Unknown
0.2689615380000001,8.214576769558201e-06,3.213393198090873e-06,3.423111479186654e-06,1.0138752862839562e-05,3.644624263919024e-05,1.0859102101623011e-05,Unknown
0.2694807690000003,8.198821337028609e-06,3.208764526450149e-06,3.4241741528447367e-06,1.0112226750529984e-05,3.647861321054967e-05,1.0727013268909858e-05,Unknown
0.2699999999999996,8.182327003196067e-06,3.20105168216192e-06,3.4307572041513657e-06,1.0105115703950646e-05,3.646165578094744e-05,1.055914708525545e-05,Unknown
0.27051923099999975,8.178958214360594e-06,3.206792905833221e-06,3.4357644517563578e-06,1.0105165765794194e-05,3.644994796679259e-05,1.041295628310802e-05,Unknown
0.2710384619999999,8.179393350488919e-06,3.229371421339762e-06,3.4362689339598445e-06,1.0105362518457469e-05,3.646051174383415e-05,1.0355401001715332e-05,Unknown
0.271557692,8.19076027907098e-06,3.252463201657899e-06,3.4367567036421857e-06,1.01022112752553e-05,3.6447807852832256e-05,1.0355758751482152e-05,Unknown
0.2720769230000002,8.225688575456758e-06,3.266265075898586e-06,3.435384966603212e-06,1.0091058037195228e-05,3.642089111599646e-05,1.0318300709188038e-05,Unknown
0.27259615400000037,8.258385868918237e-06,3.275800135061351e-06,3.4235507212531074e-06,1.006337969125976e-05,3.643534386845959e-05,1.023933485017084e-05,Unknown
0.27311538499999966,8.27403224602448e-06,3.286449411778041e-06,3.402459587110969e-06,1.0010165654813184e-05,3.644669847284051e-05,1.018600423217982e-05,Unknown
0.27363461499999975,8.283245825132872e-06,3.301182973317818e-06,3.386986457625248e-06,9.927096367506163e-06,3.64357009387102e-05,1.0168729140999313e-05,Unknown
0.2741538459999999,8.285967959214031e-06,3.319071377383805e-06,3.382860201178331e-06,9.812197702487164e-06,3.65061468600749e-05,1.0161938820830624e-05,Unknown
0.2746730770000001,8.282352432321777e-06,3.333420656622324e-06,3.3826941533320103e-06,9.661281870605102e-06,3.665926750948489e-05,1.015128980985696e-05,Unknown
0.2751923080000003,8.278280684618678e-06,3.3399898575124034e-06,3.3799205715793818e-06,9.470681198013022e-06,3.6788899424264986e-05,1.0131477441989728e-05,Unknown
0.27571153800000037,8.274401508940195e-06,3.3415803146591503e-06,3.3730244441513837e-06,9.24355973454537e-06,3.686611520228949e-05,1.010851583504076e-05,Unknown
0.27623076899999965,8.267199337552934e-06,3.3427056081185764e-06,3.364588169563205e-06,8.992621147251389e-06,3.692365117529765e-05,1.00869068180566e-05,Unknown
0.27674999999999983,8.250423549434575e-06,3.3443028455168603e-06,3.3592596039290806e-06,8.734563415051418e-06,3.6986458812226216e-05,1.0062469551069e-05,Unknown
0.277269231,8.22232201945616e-06,3.3454241726900017e-06,3.357320036533495e-06,8.480214779917386e-06,3.705368845459833e-05,1.0029087283884347e-05,Unknown
0.2777884620000002,8.202393647189026e-06,3.346136895379333e-06,3.355862598472255e-06,8.23115249022157e-06,3.711059137148336e-05,9.987488096419955e-06,Unknown
0.2783076920000003,8.217703814271664e-06,3.3468541241411696e-06,3.3599818001343903e-06,7.983939008823244e-06,3.715319485456442e-05,9.949720033034307e-06,Unknown
0.27882692299999956,8.255628501319446e-06,3.348608113121445e-06,3.3675628706969183e-06,7.733847861171839e-06,3.718694007262549e-05,9.925858535083836e-06,Unknown
0.27934615399999974,8.279925398767694e-06,3.346821057239512e-06,3.365151330887973e-06,7.476778462674941e-06,3.721819935945779e-05,9.913227214995996e-06,Unknown
0.2798653849999999,8.282548896244684e-06,3.3372659294776137e-06,3.3596545171016176e-06,7.212762908011686e-06,3.725373909972861e-05,9.904330594325904e-06,Unknown
0.280384615,8.276279091416935e-06,3.329981345079157e-06,3.3699733669179183e-06,6.945860625757626e-06,3.730161543849914e-05,9.893018207299312e-06,Unknown
0.2809038460000002,8.27157071293359e-06,3.3300663358786286e-06,3.39440327169153e-06,6.679558456737344e-06,3.736421715149804e-05,9.871047404366347e-06,Unknown
0.28142307700000035,8.269308549544064e-06,3.330857385679988e-06,3.4161602751505783e-06,6.41537981817223e-06,3.742249846015647e-05,9.831463155163616e-06,Unknown
0.28194230799999964,8.266010883297676e-06,3.3307429765676626e-06,3.4277092232551864e-06,6.154745021403908e-06,3.7445044402935537e-05,9.779633164240314e-06,Unknown
0.28246153799999973,8.254787889462863e-06,3.330199795982064e-06,3.433362833499754e-06,5.900973230579713e-06,3.743283414366561e-05,9.730353815654518e-06,Unknown
0.2829807689999999,8.228325525103644e-06,3.329083046079839e-06,3.4373608737390788e-06,5.6598534266100976e-06,3.742796158094807e-05,9.69190311629236e-06,Unknown
0.2835000000000001,8.206983666786425e-06,3.328896037405433e-06,3.440696106756648e-06,5.43849575409089e-06,3.745402114848903e-05,9.662406312662586e-06,Unknown
0.28401923100000026,8.211793252361182e-06,3.3287912744274955e-06,3.442895800697627e-06,5.246249206224468e-06,3.747558666748503e-05,9.638257082690752e-06,Unknown
0.28453846199999955,8.219462511282674e-06,3.3271582812614137e-06,3.4437476458466832e-06,5.095054035846767e-06,3.7475365922648345e-05,9.6181688445554e-06,Unknown
0.28505769199999964,8.21939739667885e-06,3.3250198758350416e-06,3.4439410292908947e-06,4.991351040092268e-06,3.756963850401657e-05,9.601749760617254e-06,Unknown
0.2855769229999998,8.226831249327952e-06,3.32343849026052e-06,3.446169547871822e-06,4.927738522928706e-06,3.7899594778019416e-05,9.586968155007606e-06,Unknown
0.286096154,8.23322671182543e-06,3.322927207327641e-06,3.4610550783830047e-06,4.888174185089194e-06,3.839326571013824e-05,9.570217387663658e-06,Unknown
0.28661538500000017,8.233760686399008e-06,3.3250219062679898e-06,3.505625143557248e-06,4.858732997141781e-06,3.882129644983828e-05,9.549727552323466e-06,Unknown
0.28713461500000026,8.233419126593453e-06,3.3278414922097125e-06,3.5762131473633662e-06,4.831464779088842e-06,3.905518044428134e-05,9.529133858163906e-06,Unknown
0.28765384599999955,8.231858639995088e-06,3.324246603698452e-06,3.641334442483193e-06,4.803421386448906e-06,3.913680630517746e-05,9.515736604095226e-06,Unknown
0.2881730769999997,8.236213009788343e-06,3.3113712941177757e-06,3.683799896224073e-06,4.775338417234072e-06,3.915862499604379e-05,9.511864378298004e-06,Unknown
0.2886923079999999,8.241038781941091e-06,3.2941692028145298e-06,3.712264842372653e-06,4.750060437767879e-06,3.917201297118886e-05,9.512034345057265e-06,Unknown
0.289211538,8.23807183093619e-06,3.2804255705859365e-06,3.733380055312768e-06,4.730729200042992e-06,3.919298205978243e-05,9.5110742227295e-06,Unknown
0.28973076900000017,8.237594182207072e-06,3.274355665263035e-06,3.7503928867382823e-06,4.719932771269269e-06,3.9230722886939614e-05,9.508469542376605e-06,Unknown
0.29025000000000034,8.238694504799334e-06,3.273369279020235e-06,3.76924152519426e-06,4.717780675711614e-06,3.926119791899208e-05,9.505290093824625e-06,Unknown
0.29076923099999963,8.237106777222553e-06,3.273306656313494e-06,3.790496983065071e-06,4.719075789822146e-06,3.919509543712743e-05,9.500027174508783e-06,Unknown
0.2912884619999998,8.245464607836317e-06,3.272968547958978e-06,3.8127190774591096e-06,4.718921368210477e-06,3.899085570377914e-05,9.4855852209609e-06,Unknown
0.2918076919999999,8.259903270866808e-06,3.278540020450894e-06,3.83522057627006e-06,4.720358695432137e-06,3.8752542485802655e-05,9.455750425540274e-06,Unknown
0.29232692300000007,8.261896942266612e-06,3.292917562350038e-06,3.849991394275804e-06,4.7245878164473455e-06,3.859590851748616e-05,9.414685244831694e-06,Unknown
0.29284615400000025,8.254467800317088e-06,3.307277216517439e-06,3.854364768079123e-06,4.7270679839332825e-06,3.853855314886164e-05,9.374345876584493e-06,Unknown
0.29336538499999953,8.25025384775325e-06,3.316258479931993e-06,3.858301122519136e-06,4.7288831274511e-06,3.853756283747801e-05,9.345238442725155e-06,Unknown
0.2938846149999996,8.252951305969893e-06,3.3211333328894723e-06,3.869175762556033e-06,4.725165589412003e-06,3.850237534225448e-05,9.32988231865337e-06,Unknown
0.2944038459999998,8.25983393433212e-06,3.322760663425552e-06,3.88614072740572e-06,4.697926015792765e-06,3.83408586846718e-05,9.324114153742071e-06,Unknown
0.294923077,8.258842504929133e-06,3.3234872247510165e-06,3.901296150482501e-06,4.6394781947318285e-06,3.813518486137602e-05,9.32352639420396e-06,Unknown
0.29544230800000015,8.246620540899722e-06,3.3293420974117e-06,3.907952173430471e-06,4.564389069553999e-06,3.807682725668261e-05,9.326144150180414e-06,Unknown
0.29596153800000025,8.23677667442106e-06,3.348670324761231e-06,3.90932826508131e-06,4.492830303293275e-06,3.8154447886381446e-05,9.33076944558678e-06,Unknown
0.29648076899999953,8.233238006809144e-06,3.3794671534719818e-06,3.906675035951791e-06,4.432178452652986e-06,3.823532498505941e-05,9.334327010791564e-06,Unknown
0.2969999999999997,8.232389131209587e-06,3.4018468553701534e-06,3.894396160663156e-06,4.379583216086538e-06,3.828168634397781e-05,9.330731200523998e-06,Unknown
0.2975192309999999,8.224515227573509e-06,3.4051084312998768e-06,3.87705768202636e-06,4.328218378573463e-06,3.829183750532271e-05,9.312770375437889e-06,Unknown
0.29803846200000006,8.193346662390728e-06,3.3983977173881685e-06,3.866870098642221e-06,4.267092408332286e-06,3.827051486838828e-05,9.276919724010291e-06,Unknown
0.29855769200000015,8.160524652343823e-06,3.3899775693684225e-06,3.868490830539803e-06,4.19092418707629e-06,3.827825817114654e-05,9.227903897205296e-06,Unknown
0.2990769230000003,8.160255910674997e-06,3.383083941248556e-06,3.880523181452641e-06,4.11057082870159e-06,3.838916201448002e-05,9.17635225415752e-06,Unknown
0.2995961539999996,8.170855297743489e-06,3.3781902377275244e-06,3.902809672896234e-06,4.040107053636065e-06,3.8503637284681536e-05,9.13185993386374e-06,Unknown
0.3001153849999998,8.170065235251325e-06,3.373489104970515e-06,3.939127491513872e-06,3.982003542034503e-06,3.8385228850608026e-05,9.099819241456322e-06,Unknown
0.3006346149999999,8.17237873465356e-06,3.3691552197964902e-06,3.994054581247781e-06,3.936238543454205e-06,3.805753580686115e-05,9.0793528599476e-06,Unknown
0.30115384600000006,8.178165947660927e-06,3.366697577905198e-06,4.067398696438543e-06,3.902108114972218e-06,3.778599127543286e-05,9.061963262059894e-06,Unknown
0.30167307700000023,8.19477553032357e-06,3.3653391121160823e-06,4.155369498980573e-06,3.874175648049204e-06,3.766801709569391e-05,9.035302898332947e-06,Unknown
0.3021923080000004,8.23574817039369e-06,3.357825389598417e-06,4.258396019221745e-06,3.856827893881841e-06,3.762669121971775e-05,8.989995960219197e-06,Unknown
0.3027115379999996,8.273856325430599e-06,3.329315015515672e-06,4.38677774520832e-06,3.856799116018095e-06,3.760427028799786e-05,8.929151595436527e-06,Unknown
0.3032307689999998,8.288533999377134e-06,3.269346445898984e-06,4.553469565420469e-06,3.864424777472181e-06,3.758537473089103e-05,8.869718169667838e-06,Unknown
0.30374999999999996,8.290783059610271e-06,3.190356590713536e-06,4.7501372404981325e-06,3.866877935685834e-06,3.7566675769518833e-05,8.826038451737869e-06,Unknown
0.30426923100000014,8.289661679897071e-06,3.1299384296945995e-06,4.945671563247043e-06,3.859446891061113e-06,3.753870525518229e-05,8.799261861498163e-06,Unknown
0.3047884620000003,8.284376290070086e-06,3.118990386734293e-06,5.11976596015699e-06,3.847025523861351e-06,3.748904053432345e-05,8.785574306133802e-06,Unknown
0.3053076920000004,8.27595832511647e-06,3.145232436671602e-06,5.279043383314513e-06,3.8418266982487925e-06,3.743995144750292e-05,8.782789654261798e-06,Unknown
0.3058269229999997,8.279495760028998e-06,3.1762968277933285e-06,5.442407093036284e-06,3.845920165346074e-06,3.743162806825889e-05,8.783706306261372e-06,Unknown
0.30634615399999987,8.287833459229255e-06,3.20041490267689e-06,5.626176528607777e-06,3.849160340970207e-06,3.742422113768321e-05,8.774221778681052e-06,Unknown
0.30686538500000005,8.274864774192894e-06,3.220092176886548e-06,5.830073427210308e-06,3.844846152677082e-06,3.74152925777347e-05,8.746200215926795e-06,Unknown
0.30738461500000014,8.246433340421006e-06,3.238196872741999e-06,6.0293276144116746e-06,3.834623709837214e-06,3.741514996985347e-05,8.696242470647074e-06,Unknown
0.3079038460000003,8.219439169717142e-06,3.2520770478111014e-06,6.192016072614505e-06,3.822753115356373e-06,3.72620791147141e-05,8.609972641809064e-06,Unknown
0.3084230769999996,8.192777702495905e-06,3.2542115954811646e-06,6.30249276137168e-06,3.8103976572577215e-06,3.705145641514477e-05,8.461139040949977e-06,Unknown
0.3089423079999998,8.161738805329416e-06,3.249009701604292e-06,6.368837696660951e-06,3.796717533568989e-06,3.70244854659169e-05,8.235333178037448e-06,Unknown
0.30946153799999987,8.132212965986483e-06,3.2500410369281126e-06,6.41603754698628e-06,3.785357167398956e-06,3.6959025168750354e-05,7.95437138948405e-06,Unknown
0.30998076900000004,8.109849797615636e-06,3.262740233150885e-06,6.4697567885163765e-06,3.7845679330473087e-06,3.6761772848016055e-05,7.669799837985097e-06,Unknown
0.3105000000000002,8.095272479634892e-06,3.27965469144451e-06,6.534378002374737e-06,3.792124248592288e-06,3.669296136722004e-05,7.437764097292127e-06,Unknown
0.3110192310000004,8.090694095935244e-06,3.288890367919745e-06,6.590621618850345e-06,3.797341222860769e-06,3.668229389674152e-05,7.2836711253395e-06,Unknown
0.3115384619999997,8.09058283081625e-06,3.290496515448357e-06,6.622945968126222e-06,3.7984558974283697e-06,3.65473118677152e-05,7.177360301459732e-06,Unknown
0.3120576919999998,8.07444801684537e-06,3.2910289528694792e-06,6.633060939150718e-06,3.7984464235618927e-06,3.6418396549604266e-05,7.077462402157027e-06,Unknown
0.31257692299999995,7.99311446979592e-06,3.2939676533444582e-06,6.631062385811464e-06,3.7976329291793433e-06,3.640063667950971e-05,6.984999911944342e-06,Unknown
0.3130961540000001,7.812458209380744e-06,3.29812263726808e-06,6.627614794110398e-06,3.793571002491389e-06,3.638614842235717e-05,6.91861942779687e-06,Unknown
0.3136153850000003,7.607230299600868e-06,3.2977512691448458e-06,6.626606171176282e-06,3.785436378412365e-06,3.6310332425911664e-05,6.878677583967929e-06,Unknown
0.3141346150000004,7.484325685740409e-06,3.2942264493296985e-06,6.628290194397175e-06,3.779337957922267e-06,3.6214875642088456e-05,6.8545084369502124e-06,Unknown
0.3146538459999997,7.440195523570461e-06,3.292723809312176e-06,6.633975287821669e-06,3.778891714359744e-06,3.611637016035037e-05,6.8374199311490206e-06,Unknown
0.31517307699999986,7.421025833028121e-06,3.29262856674819e-06,6.64246563159613e-06,3.781219819213146e-06,3.59591800196586e-05,6.822569752167559e-06,Unknown
0.31569230800000003,7.390048877188728e-06,3.292928811091813e-06,6.652596486441863e-06,3.785121398729289e-06,3.563725902378784e-05,6.807520987904553e-06,Unknown
0.3162115380000001,7.312177007564686e-06,3.2929816518867835e-06,6.668274616987391e-06,3.788647247556484e-06,3.51627686705758e-05,6.79309250308529e-06,Unknown
0.3167307690000003,7.209936584084419e-06,3.2913858250639058e-06,6.700034169298199e-06,3.790129450400369e-06,3.4792773651023326e-05,6.7842457902508095e-06,Unknown
0.3172499999999996,7.157014119796276e-06,3.288193736067203e-06,6.757819522943275e-06,3.791739590158096e-06,3.473894576166935e-05,6.782185272686719e-06,Unknown
0.31776923099999976,7.157225092138925e-06,3.28413877468496e-06,6.839534072205413e-06,3.7929897649422336e-06,3.484357977501865e-05,6.78189460997206e-06,Unknown
0.31828846199999994,7.160506332258878e-06,3.282049839920336e-06,6.93530782070709e-06,3.7929940598529017e-06,3.484690614694821e-05,6.782661553685672e-06,Unknown
0.31880769200000003,7.1588987491502575e-06,3.286104756078232e-06,7.041514786103234e-06,3.794613243389908e-06,3.4806253054503064e-05,6.785319492644758e-06,Unknown
0.3193269230000002,7.159737913333565e-06,3.29401620932182e-06,7.162625908481417e-06,3.798007269547448e-06,3.488219343547076e-05,6.781846652453882e-06,Unknown
0.3198461540000004,7.15972765903944e-06,3.299271194369481e-06,7.301922689442575e-06,3.8001993855848905e-06,3.4973804256270446e-05,6.767316444936627e-06,Unknown
0.32036538499999967,7.159894239521293e-06,3.3010713266027038e-06,7.453519333530059e-06,3.800110909324536e-06,3.496120235199782e-05,6.750630514470238e-06,Unknown
0.32088461499999976,7.159939300800924e-06,3.3030890278165485e-06,7.604881436568879e-06,3.797188848412657e-06,3.491967241951346e-05,6.740338827180327e-06,Unknown
0.32140384599999994,7.169914375205285e-06,3.3085156879077207e-06,7.74761739691116e-06,3.791066082313869e-06,3.4915253122891835e-05,6.736152044231044e-06,Unknown
0.3219230770000001,7.196747159691861e-06,3.3174067880513025e-06,7.883765887300409e-06,3.7836545102994014e-06,3.492748970740993e-05,6.732960163791192e-06,Unknown
0.3224423080000003,7.222482135133588e-06,3.3272163558554853e-06,8.021921672472587e-06,3.77887015500344e-06,3.4920455350912884e-05,6.7198240928645294e-06,Unknown
0.3229615380000004,7.232997151170103e-06,3.337049589188423e-06,8.166728339306222e-06,3.7816070881261696e-06,3.4870103428883794e-05,6.688728918427114e-06,Unknown
0.32348076899999967,7.223008950493891e-06,3.345557555560907e-06,8.31175533325556e-06,3.791744616806129e-06,3.4794152377167246e-05,6.647740388175518e-06,Unknown
0.32399999999999984,7.199301193641379e-06,3.3480740632627736e-06,8.443711851752783e-06,3.798258461365605e-06,3.473305997767412e-05,6.613974285426148e-06,Unknown
0.324519231,7.1942141357437625e-06,3.344772941568879e-06,8.551909020124735e-06,3.797446767795903e-06,3.470223241240549e-05,6.596430119952604e-06,Unknown
0.3250384620000002,7.210511692313796e-06,3.3445362425145487e-06,8.633266309770467e-06,3.80260923388424e-06,3.469471685731529e-05,6.587325706173624e-06,Unknown
0.3255576920000003,7.219125849634388e-06,3.352525512839271e-06,8.690574741155177e-06,3.814205312586557e-06,3.4702671237859e-05,6.569318542327343e-06,Unknown
0.3260769229999996,7.218064228131269e-06,3.3659626815063644e-06,8.729949662651501e-06,3.820486574425032e-06,3.471943557353203e-05,6.530920867802334e-06,Unknown
0.32659615399999975,7.2149035659257726e-06,3.381785217849603e-06,8.759578043282142e-06,3.821763849481334e-06,3.473479446425449e-05,6.475391793362536e-06,Unknown
0.3271153849999999,7.204505951883322e-06,3.394640430097341e-06,8.78732502333987e-06,3.82317077039107e-06,3.474320254431207e-05,6.417808569520965e-06,Unknown
0.327634615,7.153256083925346e-06,3.39961167263624e-06,8.817131349827982e-06,3.825993051715505e-06,3.47512372291135e-05,6.369288380008044e-06,Unknown
0.3281538460000002,7.023533104968387e-06,3.399052832526298e-06,8.845190781796493e-06,3.826350631653703e-06,3.4766661059762125e-05,6.325659603923959e-06,Unknown
0.32867307700000037,6.851993812418394e-06,3.396147493711989e-06,8.863760554251183e-06,3.81793686783602e-06,3.47912953788603e-05,6.272993641015893e-06,Unknown
0.32919230799999966,6.705715679432321e-06,3.3911042261512736e-06,8.871412924826788e-06,3.800332736544245e-06,3.482463822419055e-05,6.200012413235684e-06,Unknown
0.32971153799999975,6.600308951200993e-06,3.380987782134393e-06,8.872454589792183e-06,3.7782285030153777e-06,3.486376341323767e-05,6.116422233791361e-06,Unknown
0.3302307689999999,6.523531320055236e-06,3.3626128593336644e-06,8.869334975557635e-06,3.7594075089248135e-06,3.490296441303692e-05,6.051548881319733e-06,Unknown
0.3307500000000001,6.472010502497698e-06,3.341556003849509e-06,8.86186180808007e-06,3.7521864777607065e-06,3.493602188106716e-05,6.021373411540808e-06,Unknown
0.3312692310000003,6.452718768675804e-06,3.3273687011586226e-06,8.850716698869594e-06,3.7549013219545793e-06,3.4953125246489865e-05,6.014761618131346e-06,Unknown
0.33178846199999956,6.462111187972355e-06,3.322361218423542e-06,8.837555409077779e-06,3.7512574459786014e-06,3.4932980807729884e-05,6.014529460224901e-06,Unknown
0.33230769199999965,6.472733729333216e-06,3.3231159277899487e-06,8.824350188203414e-06,3.727046920781688e-06,3.483916086189494e-05,6.014554377509223e-06,Unknown
0.33282692299999983,6.462489162614017e-06,3.3247732257258887e-06,8.81699487321045e-06,3.681056461320861e-06,3.4627714185617295e-05,6.014714429566993e-06,Unknown
0.333346154,6.443105102509296e-06,3.3249421262935688e-06,8.819301548907504e-06,3.6168877621514752e-06,3.431286638385533e-05,6.0099754235739855e-06,Unknown
0.3338653850000002,6.4332201487411965e-06,3.324969846521571e-06,8.824353773513626e-06,3.5330071364470644e-06,3.408019401361442e-05,5.990767613725535e-06,Unknown
0.3343846150000003,6.432281520029952e-06,3.3244124404049683e-06,8.82320727285448e-06,3.432566920234902e-06,3.409237909758152e-05,5.961826003397971e-06,Unknown
0.33490384599999956,6.435674894388608e-06,3.323013029067752e-06,8.81349627650608e-06,3.3386748131826084e-06,3.4114327469029783e-05,5.949782408482018e-06,Unknown
0.33542307699999974,6.441773161873284e-06,3.323400903283424e-06,8.79996639054324e-06,3.2696147448107635e-06,3.388203048096695e-05,5.948620800524931e-06,Unknown
0.3359423079999999,6.44621592640237e-06,3.323220530589872e-06,8.793793430436273e-06,3.219493031747358e-06,3.360265453441648e-05,5.8735511477355896e-06,Unknown
0.336461538,6.440853719575296e-06,3.318283531764266e-06,8.801808660069069e-06,3.1711338302033672e-06,3.350459383407816e-05,5.640962958649156e-06,Unknown
0.3369807690000002,6.422155187163629e-06,3.313697209851347e-06,8.818924369266241e-06,3.109397260691503e-06,3.350050083668985e-05,5.3088420371523344e-06,Unknown
0.33750000000000036,6.40633280981855e-06,3.3139682329173264e-06,8.839050670668461e-06,3.040305315183157e-06,3.3500959705592924e-05,5.071538922271853e-06,Unknown
0.33801923099999964,6.406429323481901e-06,3.315011664581172e-06,8.863713949386615e-06,2.987347849919924e-06,3.3503050743746764e-05,5.018316337409779e-06,Unknown
0.3385384619999998,6.408203413003283e-06,3.3153071990843435e-06,8.898348945824662e-06,2.95856149011054e-06,3.3500047838299593e-05,5.030721995605608e-06,Unknown
0.3390576919999999,6.408804361426737e-06,3.3175139426053986e-06,8.944710979220985e-06,2.942584001108517e-06,3.3488775372856065e-05,5.020303374523401e-06,Unknown
0.3395769230000001,6.418276755553676e-06,3.325402152672652e-06,8.998135384455014e-06,2.929037941870215e-06,3.348059923904605e-05,5.0081336720452575e-06,Unknown
0.34009615400000026,6.4265985991535325e-06,3.339647614452363e-06,9.053162226287772e-06,2.915083620678777e-06,3.348522613961286e-05,5.007548488105264e-06,Unknown
0.34061538499999955,6.4304804764373015e-06,3.3527080370404813e-06,9.107453751114716e-06,2.907545960348016e-06,3.34994553939005e-05,5.0095241376565164e-06,Unknown
0.34113461499999964,6.43301345049675e-06,3.3579936421687475e-06,9.159375310376842e-06,2.9142291584095863e-06,3.356362304219952e-05,5.0103056908807984e-06,Unknown
0.3416538459999998,6.429740488516189e-06,3.352970204454895e-06,9.206879158673268e-06,2.930046339239015e-06,3.3648040227495794e-05,5.007981474776789e-06,Unknown
0.342173077,6.430475602449503e-06,3.3359505919832222e-06,9.24966364761298e-06,2.9473966129544333e-06,3.3638534507266524e-05,5.002211082851919e-06,Unknown
0.34269230800000017,6.443757286041676e-06,3.316950702894312e-06,9.288496377850491e-06,2.96065901064519e-06,3.377665079905262e-05,5.001133762495045e-06,Unknown
0.34321153800000026,6.457376381646606e-06,3.308947222920708e-06,9.322406722697046e-06,2.9621159686042546e-06,3.4121665882359744e-05,4.9952272603391065e-06,Unknown
0.34373076899999955,6.454578274424486e-06,3.3099840820593365e-06,9.350343812452924e-06,2.956678449698275e-06,3.387096428293882e-05,4.961171425220288e-06,Unknown
0.3442499999999997,6.434469221315348e-06,3.3128936323893013e-06,9.375552792879186e-06,2.9487566979231524e-06,3.2948385458297466e-05,4.915036900819848e-06,Unknown
0.3447692309999999,6.413320138441549e-06,3.309072961557258e-06,9.403306341766014e-06,2.927270325232982e-06,3.258268437508592e-05,4.8825543112485055e-06,Unknown
0.3452884620000001,6.403383028937432e-06,3.29328781730034e-06,9.43439713836657e-06,2.897299035867418e-06,3.299704430575269e-05,4.85616071931129e-06,Unknown
0.34580769200000017,6.402862388232117e-06,3.278746103852303e-06,9.462945731291769e-06,2.88441924349351e-06,3.321095273494841e-05,4.813422172370277e-06,Unknown
0.34632692300000034,6.408615708846133e-06,3.276613661884774e-06,9.480779689228488e-06,2.898959663031624e-06,3.303414751072362e-05,4.744189203204817e-06,Unknown
0.34684615399999963,6.419627367069332e-06,3.277274121672127e-06,9.48670288835495e-06,2.92719696797152e-06,3.289140560121099e-05,4.657400220125569e-06,Unknown
0.3473653849999998,6.423291313213892e-06,3.2727975695161224e-06,9.486754269964496e-06,2.951170578382118e-06,3.286437527074507e-05,4.568042193685638e-06,Unknown
0.3478846149999999,6.409804258628883e-06,3.264601513795522e-06,9.48547058269799e-06,2.9644154829322872e-06,3.286194960899513e-05,4.487531633020776e-06,Unknown
0.3484038460000001,6.393286448603343e-06,3.2591807974490805e-06,9.484142400880509e-06,2.9717118448038127e-06,3.28524414417589e-05,4.420776185613194e-06,Unknown
0.34892307700000025,6.374572949540371e-06,3.26159520046885e-06,9.483009142764712e-06,2.980979644220816e-06,3.281515537032952e-05,4.375088784016407e-06,Unknown
0.34944230799999954,6.3320154716566975e-06,3.2640621286695165e-06,9.48207916244351e-06,3.004109109404574e-06,3.2769154044751257e-05,4.3574735181428285e-06,Unknown
0.34996153799999963,6.254535730098468e-06,3.2634131841573947e-06,9.48167305007773e-06,3.0429607196605915e-06,3.275535564448493e-05,4.357590759829141e-06,Unknown
0.3504807689999998,6.143027547662006e-06,3.259190754464252e-06,9.481650699779948e-06,3.07176796202357e-06,3.277136094926434e-05,4.359637473480662e-06,Unknown
0.351,6.027893959063872e-06,3.2460203332795724e-06,9.48164186596835e-06,3.073183111190033e-06,3.279615278400385e-05,4.360701767875106e-06,Unknown
0.35151923100000015,5.951355384620856e-06,3.229344219462321e-06,9.480538960563303e-06,3.0639597933411725e-06,3.2840994950468975e-05,4.364330114357673e-06,Unknown
0.35203846200000033,5.91415056582043e-06,3.2145000592076037e-06,9.476429494347909e-06,3.0595125376680385e-06,3.297604472614917e-05,4.374261671948572e-06,Unknown
0.35255769199999953,5.903990735014287e-06,3.202443574790798e-06,9.471592629512051e-06,3.058792840628651e-06,3.3270744931374186e-05,4.3913048392065245e-06,Unknown
0.3530769229999997,5.914227590507903e-06,3.194113377351457e-06,9.470390583826338e-06,3.060958353601553e-06,3.356342222951182e-05,4.406300807090954e-06,Unknown
0.3535961539999999,5.9177196102248e-06,3.1869283042847315e-06,9.472544199450113e-06,3.061326539051926e-06,3.3634046935594426e-05,4.4119514081932e-06,Unknown
0.35411538500000006,5.903494804683683e-06,3.179980033521155e-06,9.476210834423762e-06,3.060807497469896e-06,3.3649671232967174e-05,4.412265106127001e-06,Unknown
0.35463461500000015,5.893695628775331e-06,3.1740382173016382e-06,9.481827896220994e-06,3.0743316344063976e-06,3.378670717497903e-05,4.411405420115364e-06,Unknown
0.35515384600000033,5.8928486807851895e-06,3.170024320919085e-06,9.49051377026292e-06,3.0942054267174936e-06,3.385443741364932e-05,4.412192009234849e-06,Unknown
0.3556730769999996,5.891080398012174e-06,3.1686658744948463e-06,9.500468620386748e-06,3.0985725633585685e-06,3.386140984809413e-05,4.415377936535358e-06,Unknown
0.3561923079999998,5.893689424997066e-06,3.1675118134508067e-06,9.507546343663768e-06,3.091592839775174e-06,3.4045988267454474e-05,4.418078617099304e-06,Unknown
0.3567115379999999,5.904489959196943e-06,3.1649313704694795e-06,9.510619200809266e-06,3.0840182305316617e-06,3.4288834918077344e-05,4.420050484620626e-06,Unknown
0.35723076900000006,5.916553482029871e-06,3.159966096066154e-06,9.51212690325334e-06,3.075433855571555e-06,3.4358897554812787e-05,4.422952385890592e-06,Unknown
0.35775000000000023,5.920287570334294e-06,3.1503064660937302e-06,9.514658533548744e-06,3.06250137651804e-06,3.433030831429749e-05,4.427481957266629e-06,Unknown
0.3582692310000004,5.916964287115514e-06,3.139864908949477e-06,9.519534367244186e-06,3.0498251902848683e-06,3.43145962260794e-05,4.431590066672433e-06,Unknown
0.3587884619999997,5.9191543312347565e-06,3.133942110773537e-06,9.525944852240763e-06,3.0455668070112813e-06,3.429283341251829e-05,4.4343763459656255e-06,Unknown
0.3593076919999998,5.921486611015851e-06,3.131897946920189e-06,9.530531960578996e-06,3.045662997985239e-06,3.428637207972589e-05,4.4380118476446175e-06,Unknown
0.35982692299999997,5.917593219431251e-06,3.131896243056446e-06,9.530538880320316e-06,3.044146807249368e-06,3.435582826731954e-05,4.443560232837629e-06,Unknown
0.36034615400000014,5.929510436192988e-06,3.132566850483062e-06,9.528967027481668e-06,3.036428823530901e-06,3.451365401665599e-05,4.452321257687876e-06,Unknown
0.3608653850000003,5.961505190379068e-06,3.1309468662827205e-06,9.530273882478647e-06,3.0238332105923256e-06,3.4736388754064985e-05,4.46164049079258e-06,Unknown
0.3613846150000004,5.987996961868173e-06,3.1254946920633265e-06,9.533583729300927e-06,3.0269444339081903e-06,3.4978807005291195e-05,4.46815210299269e-06,Unknown
0.3619038459999997,5.997276061196393e-06,3.120464399446428e-06,9.538193953496803e-06,3.0560192188066702e-06,3.5179078649717533e-05,4.475049862212664e-06,Unknown
0.36242307699999987,5.988918003956375e-06,3.121171745823802e-06,9.541204367599287e-06,3.0953959786687245e-06,3.5295589171636696e-05,4.482575074966728e-06,Unknown
0.36294230800000005,5.960562962172353e-06,3.12455775940398e-06,9.535884723178166e-06,3.1300216179983546e-06,3.5322953891765176e-05,4.486740630823945e-06,Unknown
0.36346153800000014,5.929262180293186e-06,3.123288606388757e-06,9.52567931570392e-06,3.15476834677825e-06,3.524987918397706e-05,4.487652718267212e-06,Unknown
0.3639807690000003,5.90964718590108e-06,3.11742216445324e-06,9.519294971667836e-06,3.1754342133615188e-06,3.5078788087428546e-05,4.48793776111495e-06,Unknown
0.3644999999999996,5.889871781575335e-06,3.112359654186517e-06,9.517020743197296e-06,3.1967547620805046e-06,3.49257762505679e-05,4.488784831244928e-06,Unknown
0.3650192309999998,5.859282046819779e-06,3.110921632342177e-06,9.514637144736684e-06,3.2113985942533637e-06,3.4910259857245527e-05,4.489758601124681e-06,Unknown
0.36553846199999995,5.812192673917252e-06,3.1107158967561444e-06,9.508750440549176e-06,3.216521157461181e-06,3.498772338150627e-05,4.489863266383644e-06,Unknown
0.36605769200000005,5.758838279492575e-06,3.105396435087043e-06,9.501960118694676e-06,3.2168025994099238e-06,3.5123715743206405e-05,4.490913958086462e-06,Unknown
0.3665769230000002,5.721764902596173e-06,3.0945311919695524e-06,9.50009113480573e-06,3.217091153522789e-06,3.5341379858735855e-05,4.497974938117721e-06,Unknown
0.3670961540000004,5.700520842758339e-06,3.086525186137245e-06,9.501194232794803e-06,3.2162425638990278e-06,3.554604065496433e-05,4.509477831904645e-06,Unknown
0.3676153849999997,5.6892527070395365e-06,3.0840807251685863e-06,9.500785038481375e-06,3.2106496104636857e-06,3.565134606773783e-05,4.516465287394465e-06,Unknown
0.3681346149999998,5.687357378117296e-06,3.0832893382778665e-06,9.498227896611807e-06,3.214446456213125e-06,3.5686542819214454e-05,4.51693586978335e-06,Unknown
0.36865384599999995,5.682119856399356e-06,3.083535957295559e-06,9.493690035616956e-06,3.24073971717849e-06,3.565838283773215e-05,4.515862355286265e-06,Unknown
0.3691730770000001,5.673617958268587e-06,3.084587086290465e-06,9.490460671235573e-06,3.2754217250899824e-06,3.556245084980989e-05,4.515855500482222e-06,Unknown
0.3696923080000003,5.671637392033537e-06,3.0848128738713865e-06,9.491696827729747e-06,3.2967517776859885e-06,3.5484949808213004e-05,4.515706742614233e-06,Unknown
0.3702115380000004,5.673337114520872e-06,3.0846213938131e-06,9.495187308908812e-06,3.2975046053671293e-06,3.560015055259111e-05,4.514302046001509e-06,Sat
0.3707307689999997,5.685218483899036e-06,3.084636467881431e-06,9.498041700351664e-06,3.292243877601059e-06,3.604849340030525e-05,4.512666502151675e-06,Sat
0.37124999999999986,5.71894251929062e-06,3.0836440863672888e-06,9.498415755024012e-06,3.292800408648344e-06,3.670749747349884e-05,4.511244675168129e-06,Sat
0.37176923100000003,5.778261187104122e-06,3.0806980729072407e-06,9.496425620947896e-06,3.290297296423014e-06,3.722805680386919e-05,4.510050843979984e-06,Sat
0.3722884620000002,5.861284389373576e-06,3.0806814012736558e-06,9.49592498699888e-06,3.2863303951013657e-06,3.743001173559143e-05,4.509315187294701e-06,Sat
0.3728076920000003,5.944469256646946e-06,3.093566578562969e-06,9.49862172151301e-06,3.290375012182278e-06,3.745301164968695e-05,4.50910420017898e-06,Sat
0.3733269229999996,5.994925584089911e-06,3.112503757822297e-06,9.501160393243698e-06,3.302307725868074e-06,3.745057968706216e-05,4.5087097339479546e-06,Sat
0.37384615399999976,6.01304674771944e-06,3.119079249656747e-06,9.501956271242982e-06,3.319296995702936e-06,3.745374772941728e-05,4.508249437100439e-06,Sat
0.37436538499999994,6.01678714126885e-06,3.116879142712508e-06,9.502348894007236e-06,3.3330835655469494e-06,3.752347133278977e-05,4.508450492114073e-06,Sat
0.37488461500000003,6.021214803577009e-06,3.116184983510387e-06,9.502476223175643e-06,3.3388356797632856e-06,3.7662978578101655e-05,4.508668292617338e-06,Sat
0.3754038460000002,6.041438068557282e-06,3.1162076513636857e-06,9.502714532939298e-06,3.339918773709345e-06,3.772505161535433e-05,4.509262264522137e-06,Sat
0.3759230770000004,6.067365637092952e-06,3.118212939100478e-06,9.503668044159566e-06,3.3430235651173867e-06,3.758664398309879e-05,4.508698202240343e-06,Sat
0.37644230799999967,6.082614649320297e-06,3.1214976862698054e-06,9.505117762335409e-06,3.3586966106109262e-06,3.72655067819169e-05,4.505635407456798e-06,Sat
0.37696153799999976,6.085919739025559e-06,3.122917772251661e-06,9.506972753274354e-06,3.390674905364512e-06,3.695137873627093e-05,4.502354216739503e-06,Sat
0.37748076899999994,6.079179702642181e-06,3.123104813390059e-06,9.509380499970904e-06,3.4272672716542298e-06,3.688134373451815e-05,4.4983507661468445e-06,Sat
0.3780000000000001,6.080298806810773e-06,3.1231615166096907e-06,9.512506499852584e-06,3.4544067032060354e-06,3.6905786212797285e-05,4.493124043246838e-06,Sat
0.3785192310000003,6.101446303059407e-06,3.123148261813289e-06,9.5169856410588e-06,3.4700011851538138e-06,3.663453407773367e-05,4.492220221477233e-06,Sat
0.3790384619999996,6.120153110323137e-06,3.1227006888630585e-06,9.522593861932787e-06,3.4800673950593765e-06,3.627208256198442e-05,4.497938651344375e-06,Sat
0.37955769199999967,6.125158194121255e-06,3.121744533277264e-06,9.526724784511405e-06,3.4903834853980883e-06,3.6217897618397846e-05,4.502762693179019e-06,Sat
0.38007692299999984,6.1208622396141015e-06,3.121476386653581e-06,9.52981182207488e-06,3.503082482346725e-06,3.611959814742749e-05,4.503176972984629e-06,Sat
0.380596154,6.102112371909844e-06,3.1226693971799937e-06,9.534496294551209e-06,3.515331671017288e-06,3.570612507893097e-05,4.505906670992385e-06,Sat
0.3811153850000002,6.087999022325231e-06,3.124017940391789e-06,9.535439794140388e-06,3.524444362357194e-06,3.538886131040061e-05,4.513481449473201e-06,Sat
0.3816346150000003,6.096042817778452e-06,3.1242896980085965e-06,9.527829398365314e-06,3.529480422238688e-06,3.5350924252597225e-05,4.52276135140425e-06,Sat
0.3821538459999996,6.103975061530295e-06,3.1233332054889306e-06,9.5175813541641e-06,3.5293710927645576e-06,3.5329621753645165e-05,4.532932088278539e-06,Sat
0.38267307699999975,6.088091782397895e-06,3.1202200272760698e-06,9.510178589726876e-06,3.527494573458374e-06,3.519630096517227e-05,4.538505172550449e-06,Sat
0.3831923079999999,6.0334740727863954e-06,3.113520007111932e-06,9.505289681894252e-06,3.5294601406112703e-06,3.50198233530353e-05,4.534334730408285e-06,Sat
0.383711538,5.952455196765839e-06,3.103625199629971e-06,9.501745091266996e-06,3.5376985810058588e-06,3.486276182436292e-05,4.529847900352928e-06,Sat
0.3842307690000002,5.89400644170252e-06,3.094004062608269e-06,9.499557377237863e-06,3.552329658837596e-06,3.4744497553881333e-05,4.5341966560991735e-06,Sat
