Time,Rectus Femoris,Vastus Medialis,Vastus Lateralis,Bicep Femoris,Tibialis,Gastrocnemius Medialis,Activity
0.0,5.705801696208629e-06,8.14236256663074e-06,1.278881146420406e-05,3.122731122164152e-06,1.402029434848965e-05,2.6075723450910744e-06,Unknown
0.0005192300000000927,5.69578838471001e-06,8.148415117934231e-06,1.2749804656733926e-05,3.1046898109090914e-06,1.4014916603146636e-05,2.614005181458204e-06,Unknown
0.0010384600000001853,5.680611170439884e-06,8.154524494743991e-06,1.2732305853825462e-05,3.084201251348295e-06,1.4012430670809308e-05,2.6142105101084305e-06,Unknown
0.0015576899999985017,5.648265798042408e-06,8.153362895196213e-06,1.2723399526528626e-05,3.06191361741795e-06,1.401473465794311e-05,2.616905092764088e-06,Unknown
0.0020769199999985943,5.627990836686823e-06,8.146029612974053e-06,1.271436335279216e-05,3.040105726064658e-06,1.4017176203480344e-05,2.6238035582474727e-06,Unknown
0.002596149999998687,5.628456811218483e-06,8.134382891421115e-06,1.2700835645614709e-05,3.0217005857968786e-06,1.4009688977025884e-05,2.626695759409946e-06,Unknown
0.0031153799999987797,5.629907401165934e-06,8.116996739713098e-06,1.268620866659591e-05,3.004584411124272e-06,1.397826806059355e-05,2.619916759902118e-06,Unknown
0.0036346199999996998,5.629516810442089e-06,8.096626099514864e-06,1.267782563220664e-05,2.987573113667594e-06,1.3936800063551786e-05,2.6176696397802622e-06,Unknown
0.004153849999999792,5.621417585695689e-06,8.081914644205678e-06,1.2678676223804758e-05,2.976960124917182e-06,1.3920608688810635e-05,2.621046267358451e-06,Unknown
0.004673079999999885,5.610027470748534e-06,8.076977311949744e-06,1.2686533087042498e-05,2.9752043277508244e-06,1.3923376539821984e-05,2.607593988196893e-06,Unknown
0.005192309999999978,5.611004107805528e-06,8.081062984701814e-06,1.2691701230183462e-05,2.9755365065271995e-06,1.3919239247688933e-05,2.6160681680365634e-06,Unknown
0.0057115400000000704,5.615905811918041e-06,8.092211196676104e-06,1.2687940284187305e-05,2.9745701154884708e-06,1.3918758909703366e-05,2.698978480286001e-06,Unknown
0.006230770000000163,5.616897803183115e-06,8.0996651561981e-06,1.2681164955315332e-05,2.9756565830848662e-06,1.389326900139316e-05,2.79500236802069e-06,Unknown
0.0067499999999984794,5.616528904305996e-06,8.089208177100045e-06,1.2676851816847873e-05,2.980244264865621e-06,1.3759634007428714e-05,2.836744088376243e-06,Unknown
0.007269229999998572,5.613453487412569e-06,8.063637486846198e-06,1.267806705397127e-05,2.9852489484218723e-06,1.356709426597843e-05,2.8420745633852395e-06,Unknown
0.007788459999998665,5.616953856155434e-06,8.040996661054675e-06,1.2684406939444513e-05,2.985696636925361e-06,1.3480733776561962e-05,2.8333493246374205e-06,Unknown
0.008307689999998757,5.629911414380375e-06,8.034575695406795e-06,1.268695262726594e-05,2.9795605334401e-06,1.3481136921274556e-05,2.8245662587398505e-06,Unknown
0.00882691999999885,5.640807895909782e-06,8.047637262053102e-06,1.268055024286116e-05,2.9694328117354745e-06,1.3400224226335225e-05,2.830299391894334e-06,Unknown
0.009346149999998943,5.650715131254231e-06,8.079894489214098e-06,1.2663413705271692e-05,2.9617090505240465e-06,1.3236191395010074e-05,2.836094102757069e-06,Unknown
0.009865379999999035,5.659820451585087e-06,8.127101512889327e-06,1.2631484662488746e-05,2.9713169053264144e-06,1.3115992193430196e-05,2.835238703307211e-06,Unknown
0.010384619999999956,5.655108978536637e-06,8.175730391200922e-06,1.2594052195098316e-05,3.0134505107983204e-06,1.307440398687664e-05,2.837128758104117e-06,Unknown
0.010903850000000048,5.635475830186165e-06,8.20943883705243e-06,1.2567854176292962e-05,3.0756631476022797e-06,1.3067240807804277e-05,2.8355207830660943e-06,Unknown
0.011423080000000141,5.610661421191064e-06,8.226086397264894e-06,1.2554740002082652e-05,3.1228847269518254e-06,1.306529054465437e-05,2.826422534806834e-06,Unknown
0.011942310000000234,5.589923832233123e-06,8.238916991616662e-06,1.2546852897752864e-05,3.140053965379753e-06,1.3059809616002762e-05,2.8212906887930398e-06,Unknown
0.01246153999999855,5.578346185816471e-06,8.257824996909484e-06,1.2538740317467424e-05,3.139541990246062e-06,1.305029210625188e-05,2.8234225430860493e-06,Unknown
0.012980769999998643,5.568362559280477e-06,8.279227172245048e-06,1.2529780891051938e-05,3.133565235380065e-06,1.3046151058100932e-05,2.8226101340804406e-06,Unknown
0.013499999999998735,5.553265050718234e-06,8.286992966739845e-06,1.2521177191589002e-05,3.1286006900688208e-06,1.3052813026679006e-05,2.8154846679707124e-06,Unknown
0.014019229999998828,5.545680362388188e-06,8.263595633057906e-06,1.25113301332427e-05,3.1310058105401684e-06,1.3061092033900668e-05,2.807171434601476e-06,Unknown
0.01453845999999892,5.546653426800372e-06,8.224047824685412e-06,1.2498796983978116e-05,3.139889739899369e-06,1.3065250250264272e-05,2.800272027379069e-06,Unknown
0.015057689999999013,5.545783113191084e-06,8.205683902275762e-06,1.2486583781983351e-05,3.1473080495204376e-06,1.3066355592686117e-05,2.79645868289846e-06,Unknown
0.015576919999999106,5.537673522387897e-06,8.208079233855007e-06,1.2477654168979553e-05,3.1495374279202763e-06,1.3066661782084736e-05,2.7926970860757224e-06,Unknown
0.0160961499999992,5.501830157890773e-06,8.206999250477668e-06,1.246893065979744e-05,3.1506320161934e-06,1.3071620122139276e-05,2.784475439195273e-06,Unknown
0.01661537999999929,5.453396246578302e-06,8.201684678498396e-06,1.2463519425171002e-05,3.153841857365508e-06,1.307614019110617e-05,2.7767936084023143e-06,Unknown
0.01713462000000021,5.434355213249446e-06,8.198607413777994e-06,1.249930435947925e-05,3.1583325548050227e-06,1.3070943640847874e-05,2.7764412508370483e-06,Unknown
0.017653849999998528,5.435819763243454e-06,8.192233391838232e-06,1.2627005192780338e-05,3.15978159735543e-06,1.3062764246366522e-05,2.7873060452324616e-06,Unknown
0.01817307999999862,5.4365826689139655e-06,8.174498836092433e-06,1.2833638190023443e-05,3.149789452433177e-06,1.3059906759758875e-05,2.8108594180861475e-06,Unknown
0.018692309999998713,5.4366751230790405e-06,8.146028979898592e-06,1.3048344127641386e-05,3.125903317981895e-06,1.3059786165961088e-05,2.8483874909416608e-06,Unknown
0.019211539999998806,5.437689721444821e-06,8.118082575855041e-06,1.3221473750767546e-05,3.098103034906489e-06,1.3060093925244535e-05,2.89835137558708e-06,Unknown
0.0197307699999989,5.440329018167627e-06,8.1012620259347e-06,1.3342436887033929e-05,3.0783227402093337e-06,1.3059595932982598e-05,2.9393127788809523e-06,Unknown
0.02024999999999899,5.432176709694373e-06,8.095778332272224e-06,1.3411344891974534e-05,3.0696389764495582e-06,1.305729846075072e-05,2.9517684672840605e-06,Unknown
0.020769229999999084,5.406412921879404e-06,8.096479230133717e-06,1.343516733181207e-05,3.0678679322975386e-06,1.3056228212979972e-05,2.9482069935976138e-06,Unknown
0.021288459999999176,5.382902762573517e-06,8.102685880185483e-06,1.3436432708846428e-05,3.0684599513453726e-06,1.305640920035278e-05,2.946320660237741e-06,Unknown
0.02180768999999927,5.3744547853111226e-06,8.112613526431112e-06,1.3440759088928596e-05,3.070348885403508e-06,1.305582771894264e-05,2.946781603724746e-06,Unknown
0.02232691999999936,5.374139226788046e-06,8.11468852926409e-06,1.3457780903093667e-05,3.075127814923529e-06,1.3057009893702838e-05,2.941055885178969e-06,Unknown
0.022846149999999454,5.374683487960421e-06,8.10575084954786e-06,1.3483919279007229e-05,3.083755161600499e-06,1.3060089054930577e-05,2.9178029696559397e-06,Unknown
0.023365379999999547,5.373467139696292e-06,8.098731999630931e-06,1.3517335073600002e-05,3.0941492412896518e-06,1.3063432865134594e-05,2.88586290287834e-06,Unknown
0.02388461999999869,5.366344671658174e-06,8.09705315086226e-06,1.3559230574408105e-05,3.1017943534701163e-06,1.3067891244641177e-05,2.8727818081324555e-06,Unknown
0.024403849999998783,5.356911748398011e-06,8.09598598487328e-06,1.360558487362114e-05,3.103549209426845e-06,1.3069063492897878e-05,2.874313066914046e-06,Unknown
0.024923079999998876,5.357900197696537e-06,8.094750195991407e-06,1.364793973582918e-05,3.1007876770404197e-06,1.306388247984312e-05,2.8595074720011358e-06,Unknown
0.02544230999999897,5.364024444368063e-06,8.088444058542603e-06,1.3682221735056543e-05,3.0956407593270447e-06,1.3057063530528108e-05,2.831909117562362e-06,Unknown
0.02596153999999906,5.365497812406047e-06,8.08250185349494e-06,1.3710185870641338e-05,3.089142140734893e-06,1.3051984933304402e-05,2.82168709728892e-06,Unknown
0.026480769999999154,5.365058832525716e-06,8.090145903728993e-06,1.3732773397231963e-05,3.0853486140437724e-06,1.3053115935496263e-05,2.8209200677294957e-06,Unknown
0.026999999999999247,5.362564299508268e-06,8.101572792897351e-06,1.374683866656718e-05,3.087228070318138e-06,1.3062986111111583e-05,2.8039567508349816e-06,Unknown
0.02751922999999934,5.343669870436246e-06,8.099270750388706e-06,1.3750787011039657e-05,3.091854453395169e-06,1.307268973181395e-05,2.788917760067611e-06,Unknown
0.028038459999999432,5.279681289539895e-06,8.092119395255011e-06,1.3750662241942987e-05,3.0950555066986467e-06,1.3074654021703425e-05,2.7889524301847336e-06,Unknown
0.028557689999999525,5.19075694423435e-06,8.107775714269117e-06,1.375123762639503e-05,3.0960100600405222e-06,1.3071552394920667e-05,2.7838669098018597e-06,Unknown
0.029076919999999618,5.145787137450483e-06,8.153026746057652e-06,1.3749835548761146e-05,3.0960869152221653e-06,1.3068120555601823e-05,2.7795084808135147e-06,Unknown
0.02959614999999971,5.151527208242834e-06,8.20233519159306e-06,1.375059988787834e-05,3.096086907371555e-06,1.3066780959852712e-05,2.7827726241837385e-06,Unknown
0.030115379999999803,5.162754632189296e-06,8.239050045163656e-06,1.377389432276604e-05,3.0960869044953235e-06,1.3067278036903858e-05,2.7768257170033736e-06,Unknown
0.030634619999998947,5.163892601228401e-06,8.268717656998882e-06,1.383800828905908e-05,3.096114601848011e-06,1.3073368260192816e-05,2.76753862091778e-06,Unknown
0.03115384999999904,5.161052875847759e-06,8.2921927846611e-06,1.3930842176032673e-05,3.0965254037205246e-06,1.308833149731246e-05,2.7667331857656696e-06,Unknown
0.03167307999999913,5.159993953093883e-06,8.304663604213174e-06,1.401467062707242e-05,3.098687396867759e-06,1.3099284999363655e-05,2.764481311610488e-06,Unknown
0.032192309999999225,5.160019296859827e-06,8.309304052835103e-06,1.4064131589698042e-05,3.105057753153193e-06,1.3097187435947456e-05,2.7572954833250325e-06,Unknown
0.03271153999999932,5.152830895528507e-06,8.31734124832452e-06,1.4082707028161629e-05,3.114109626494632e-06,1.3093806571220944e-05,2.753621085663786e-06,Unknown
0.03323076999999941,5.141468883381621e-06,8.337260191146222e-06,1.4084928252594572e-05,3.118646357079496e-06,1.3093979545762066e-05,2.7533537442872214e-06,Unknown
0.0337499999999995,5.13523785616767e-06,8.363402653810528e-06,1.4082468664403376e-05,3.1181025080872622e-06,1.3093139804353385e-05,2.7505086751798585e-06,Unknown
0.034269229999999595,5.119053898156737e-06,8.378065154955395e-06,1.4081682778358904e-05,3.118598186884265e-06,1.3094362800929578e-05,2.7450630464506797e-06,Unknown
0.03478845999999969,5.054328914710515e-06,8.375048358234123e-06,1.4082353413439366e-05,3.120250837484753e-06,1.3095641877402976e-05,2.7396724411335035e-06,Unknown
0.03530768999999978,4.913758917067865e-06,8.367747167104865e-06,1.4083949643860568e-05,3.1203264523675685e-06,1.3094583253234173e-05,2.7371314477031037e-06,Unknown
0.03582691999999987,4.735817206941749e-06,8.365969163250746e-06,1.4079733401946075e-05,3.1215698974492e-06,1.309458354300322e-05,2.737804852484055e-06,Unknown
0.036346149999999966,4.617367306863722e-06,8.365164738554174e-06,1.4047675171128717e-05,3.129406775297097e-06,1.3090068381219603e-05,2.737828470902417e-06,Unknown
0.03686538000000006,4.588812297307781e-06,8.353890589223058e-06,1.3981712367918364e-05,3.1443826268421784e-06,1.307893270777879e-05,2.7377356374380715e-06,Unknown
0.0373846199999992,4.588874103020073e-06,8.326216184164928e-06,1.3911197383527238e-05,3.1604975927904565e-06,1.3069547877749492e-05,2.7368260321259523e-06,Unknown
0.037903849999999295,4.584144921416023e-06,8.291739057530609e-06,1.3864585129781995e-05,3.172926505818474e-06,1.3064564727660564e-05,2.733779190817252e-06,Unknown
0.03842307999999939,4.581603962759379e-06,8.266608435097255e-06,1.384319358516084e-05,3.180831514192864e-06,1.3061077720188443e-05,2.733372497239205e-06,Unknown
0.03894230999999948,4.5786640694047326e-06,8.256904350377147e-06,1.3835583358913664e-05,3.1773613464428123e-06,1.3057044298427726e-05,2.731565074066169e-06,Unknown
0.03946153999999957,4.577722415723846e-06,8.25762343572079e-06,1.38339070971663e-05,3.149752003297683e-06,1.305240453082686e-05,2.722915181099032e-06,Unknown
0.039980769999999666,4.574019765685572e-06,8.26205124041261e-06,1.3835502408321848e-05,3.099878733647373e-06,1.3047405672928828e-05,2.7131462287983822e-06,Unknown
0.04049999999999976,4.563493093004633e-06,8.265989760695938e-06,1.3838326467297152e-05,3.052406711660321e-06,1.3040660304669206e-05,2.704884035611868e-06,Unknown
0.04101922999999985,4.593539603541022e-06,8.2658666819138e-06,1.3838323498347071e-05,3.0280201063800124e-06,1.3032051083460256e-05,2.6963887958705803e-06,Unknown
0.041538459999999944,4.649051305810708e-06,8.256805887998465e-06,1.3834569717950262e-05,3.0209500380261816e-06,1.3027991660090192e-05,2.693055864717898e-06,Unknown
0.042057690000000036,4.649649878365726e-06,8.234323250681332e-06,1.3831427784455876e-05,3.0166733218662216e-06,1.3028174602443484e-05,2.697553991599328e-06,Unknown
0.04257692000000013,4.645316567335154e-06,8.19944647263909e-06,1.3836016288440976e-05,3.0038713178470696e-06,1.3022523904891122e-05,2.700408017867376e-06,Unknown
0.04309615000000022,4.703349068441281e-06,8.161464610582265e-06,1.3855487336774216e-05,2.9721009417830475e-06,1.301786115875661e-05,2.7004859866637613e-06,Unknown
0.04361537999999854,4.75820828293737e-06,8.132233018923572e-06,1.3884464020948037e-05,2.9341319861121084e-06,1.3020502095763372e-05,2.7039219778021487e-06,Unknown
0.04413461999999946,4.772910562638075e-06,8.116021760948988e-06,1.3907881937233366e-05,2.9160413803187854e-06,1.3019796033166376e-05,2.7058442083382413e-06,Unknown
0.04465384999999955,4.774451438861897e-06,8.10829048255511e-06,1.3920171591206547e-05,2.915105355384145e-06,1.301974940724753e-05,2.7039770922397694e-06,Unknown
0.045173079999999644,4.7718868943433136e-06,8.103644251987028e-06,1.392778891877063e-05,2.91621436644498e-06,1.3024858768372207e-05,2.7032712186249464e-06,Unknown
0.045692309999999736,4.780083121775659e-06,8.099076108575297e-06,1.3937852065523495e-05,2.91759765122613e-06,1.3027354284683092e-05,2.7033639139076327e-06,Unknown
0.04621153999999983,4.816024340519169e-06,8.093912052834776e-06,1.3950163020101657e-05,2.9172854840115064e-06,1.30292341859279e-05,2.703288389981446e-06,Unknown
0.04673076999999992,4.878478658115892e-06,8.090118497778566e-06,1.3959907630824068e-05,2.9154594335679114e-06,1.3030155528938292e-05,2.702993012285956e-06,Unknown
0.047250000000000014,4.947594537892658e-06,8.088743568192615e-06,1.3960826533168622e-05,2.916210831922452e-06,1.3028452571204026e-05,2.701761626157529e-06,Unknown
0.04776923000000011,4.9865093013368085e-06,8.088709875361033e-06,1.394983785494402e-05,2.9144480626967884e-06,1.3028181150433497e-05,2.702586636532795e-06,Unknown
0.0482884600000002,4.988673446357123e-06,8.090024748728088e-06,1.393419671958299e-05,2.906851708278799e-06,1.3028184471439509e-05,2.7026367213085723e-06,Unknown
0.048807689999998516,4.983710546769048e-06,8.093356365626224e-06,1.39247020435908e-05,2.90056807932842e-06,1.3028569126372064e-05,2.6997982599215465e-06,Unknown
0.04932691999999861,4.983202900578747e-06,8.096303423557459e-06,1.3931537881161245e-05,2.900939958607689e-06,1.3030167870772071e-05,2.706717993670973e-06,Unknown
0.0498461499999987,4.984610795779856e-06,8.097255439380684e-06,1.395630231558488e-05,2.902618828884007e-06,1.303179344654956e-05,2.726423442650325e-06,Unknown
0.050365379999998794,4.9852711767490905e-06,8.098016801010937e-06,1.3979342725280907e-05,2.8998516060023945e-06,1.3034346341233615e-05,2.744722498209036e-06,Unknown
0.050884619999999714,4.985651753510282e-06,8.102451653320856e-06,1.3983969582247069e-05,2.9025252022298283e-06,1.3039411539674257e-05,2.753204756330411e-06,Unknown
0.05140384999999981,4.998246596507975e-06,8.126525627005437e-06,1.397729748238329e-05,2.915723617238724e-06,1.3045035054155387e-05,2.751777060707422e-06,Unknown
0.0519230799999999,5.007924395746063e-06,8.187575760879618e-06,1.3975068576481432e-05,2.9234657082666533e-06,1.3046339956191668e-05,2.743450437895549e-06,Unknown
0.05244230999999999,5.00447959920729e-06,8.273184487358804e-06,1.3986575949727495e-05,2.919779232361827e-06,1.3043509976973925e-05,2.733977606113069e-06,Unknown
0.052961540000000085,5.007348839274851e-06,8.352291309498632e-06,1.401052610303534e-05,2.916787074562933e-06,1.3038379731280768e-05,2.727810263300324e-06,Unknown
0.05348077000000018,5.008685784856165e-06,8.40924572387954e-06,1.4032233706765544e-05,2.91894673651974e-06,1.3034045504757403e-05,2.7261985603730622e-06,Unknown
0.053999999999998494,5.00863713392171e-06,8.446266409282843e-06,1.4031073082312285e-05,2.9201269484332245e-06,1.3034857215527258e-05,2.726142901846667e-06,Unknown
0.054519229999998586,5.020729120942317e-06,8.468634519777804e-06,1.3980735337231893e-05,2.920308148407128e-06,1.3044278241061436e-05,2.725155881806361e-06,Unknown
0.05503845999999868,5.016038708429394e-06,8.478733815791844e-06,1.3833388990331765e-05,2.9219716663554325e-06,1.3068081348946238e-05,2.7254309343066585e-06,Unknown
0.05555768999999877,4.993213222024869e-06,8.480612144258482e-06,1.3558842696009591e-05,2.9217854763779605e-06,1.309405272897636e-05,2.7230343242346256e-06,Unknown
0.056076919999998864,4.998370026318425e-06,8.480658809363315e-06,1.320174959436369e-05,2.920771479685174e-06,1.310403692720604e-05,2.713474967080061e-06,Unknown
0.05659614999999896,5.014413242616154e-06,8.481201939636175e-06,1.28490496378167e-05,2.9208896212178016e-06,1.3106209138586824e-05,2.706973624673128e-06,Unknown
0.05711537999999905,4.999743331806534e-06,8.480950997021947e-06,1.256723892877624e-05,2.920843592995269e-06,1.3110015702738544e-05,2.7074711845511465e-06,Unknown
0.05763461999999997,4.971975345242197e-06,8.477719807616563e-06,1.2388504221000746e-05,2.920688827936754e-06,1.3121267180749312e-05,2.7032979916065963e-06,Unknown
0.05815385000000006,4.951487168954238e-06,8.464407593944733e-06,1.2313807270178958e-05,2.9158833629451248e-06,1.3150470274003415e-05,2.698357133510549e-06,Unknown
0.058673080000000155,4.933595074370775e-06,8.428671832858605e-06,1.2308405399484608e-05,2.9054284598763544e-06,1.3185112483018773e-05,2.7059742103205125e-06,Unknown
0.05919231000000025,4.910261641100059e-06,8.363779198047178e-06,1.2316884062839858e-05,2.8972134074853846e-06,1.320457603604146e-05,2.7237358378858903e-06,Unknown
0.059711539999998564,4.886263804957876e-06,8.277670992112327e-06,1.2303018775926174e-05,2.894357704377514e-06,1.3206363959807698e-05,2.744308051569621e-06,Unknown
0.06023076999999866,4.8884397850736905e-06,8.193062898033747e-06,1.2265667022156273e-05,2.895090372743489e-06,1.3200759020026188e-05,2.763063851872768e-06,Unknown
0.06074999999999875,4.921519870407849e-06,8.134582999718389e-06,1.2218196423040912e-05,2.9018808634688665e-06,1.3202167302993963e-05,2.7812621716888564e-06,Unknown
0.06126922999999884,4.954230917390697e-06,8.105330692256428e-06,1.2169956014685955e-05,2.919425010619218e-06,1.321160201223563e-05,2.7987379956061824e-06,Unknown
0.061788459999998935,4.970804066812812e-06,8.086202342392016e-06,1.2121216687154446e-05,2.9395663765516397e-06,1.321880359444843e-05,2.7993749956740797e-06,Unknown
0.06230768999999903,4.97705433858835e-06,8.060390306616224e-06,1.206186667566346e-05,2.943378678301134e-06,1.3222179701340215e-05,2.853705133626407e-06,Unknown
0.06282691999999912,4.978499629190247e-06,8.028758983914693e-06,1.1976433397533204e-05,2.928896583804157e-06,1.3224334901754096e-05,3.1366128948392645e-06,Unknown
0.06334614999999921,4.966157669517342e-06,8.008023872666292e-06,1.1854413503463933e-05,2.914623823855937e-06,1.322401481224203e-05,3.584554732137545e-06,Unknown
0.0638653799999993,4.913736352205171e-06,8.007394134940755e-06,1.1688783341674843e-05,2.9122275573317825e-06,1.3224703137906327e-05,3.90746338559331e-06,Unknown
0.06438462000000023,4.820130443546812e-06,8.017972462176274e-06,1.1458965824938006e-05,2.914545466681857e-06,1.3232831549895034e-05,3.998257297909351e-06,Unknown
0.06490384999999854,4.732844574957547e-06,8.029964669209357e-06,1.1125124836568945e-05,2.9121157041183875e-06,1.3246394667409664e-05,3.998269966054558e-06,Unknown
0.06542307999999863,4.6875733609087145e-06,8.03612323312236e-06,1.0669383540446086e-05,2.9070904710528438e-06,1.3259653575326686e-05,4.049032313642525e-06,Unknown
0.06594230999999873,4.67296210352698e-06,8.03634126429521e-06,1.0173080091083206e-05,2.905891800962432e-06,1.3271210285831791e-05,4.14230548668011e-06,Unknown
0.06646153999999882,4.670728854174825e-06,8.037004688313053e-06,9.804029833511764e-06,2.905399345927931e-06,1.3282021044664108e-05,4.214303579303568e-06,Unknown
0.06698076999999891,4.67061891356094e-06,8.039583996584166e-06,9.647942312033685e-06,2.901999797279753e-06,1.3292747132573864e-05,4.2467801256367786e-06,Unknown
0.067499999999999,4.670239286538566e-06,8.043510962331994e-06,9.629458883107316e-06,2.901112965709281e-06,1.330240387544435e-05,4.25799528930708e-06,Unknown
0.0680192299999991,4.671117620308977e-06,8.048499802869523e-06,9.64734586382092e-06,2.9012028449695368e-06,1.330889253339494e-05,4.262166164587978e-06,Unknown
0.06853845999999919,4.669360967968419e-06,8.05360462593482e-06,9.659369934445288e-06,2.898233542521212e-06,1.3313037395828924e-05,4.264208179827481e-06,Unknown
0.06905768999999928,4.672585549925178e-06,8.057264847858233e-06,9.660486192749888e-06,2.8971367650673417e-06,1.3318718920119728e-05,4.268020305927742e-06,Unknown
0.06957691999999938,4.68944288770549e-06,8.060119762172016e-06,9.661140818947648e-06,2.8969255183957048e-06,1.3329012580207123e-05,4.274762806301377e-06,Unknown
0.07009614999999947,4.704622944536943e-06,8.065953282853646e-06,9.660356531590086e-06,2.895156212836577e-06,1.3343508541450638e-05,4.283951196055315e-06,Unknown
0.07061537999999956,4.708046218149038e-06,8.074823540878275e-06,9.650473269236303e-06,2.8957158947693498e-06,1.3355309389533978e-05,4.294145552893432e-06,Unknown
0.0711346199999987,4.706977164584422e-06,8.080491897854684e-06,9.634411006065829e-06,2.8910559906034487e-06,1.335969410987436e-05,4.3026199765944415e-06,Unknown
0.0716538499999988,4.703098270814013e-06,8.077287907676175e-06,9.612188938983288e-06,2.876210676239217e-06,1.3363079063896823e-05,4.307972904366576e-06,Unknown
0.07217307999999889,4.701424983143221e-06,8.066089432401321e-06,9.578524521009707e-06,2.865717527815493e-06,1.337707644015507e-05,4.310046687238877e-06,Unknown
0.07269230999999898,4.699879704404141e-06,8.05035986000367e-06,9.53741814056524e-06,2.8662510622806776e-06,1.3414480049447764e-05,4.310069118785019e-06,Unknown
0.07321153999999908,4.685501779230933e-06,8.030428605756409e-06,9.5025055507157e-06,2.8704000241288512e-06,1.3476234012575837e-05,4.310696233818592e-06,Unknown
0.07373076999999917,4.673682974244689e-06,8.002733505816435e-06,9.480511693716987e-06,2.8747972328903423e-06,1.3534991776285735e-05,4.307736109992369e-06,Unknown
0.07424999999999926,4.673690923432639e-06,7.962293483257449e-06,9.466919092339938e-06,2.8782600748577698e-06,1.3563317547082008e-05,4.296496753028695e-06,Unknown
0.07476922999999935,4.661211095031098e-06,7.910589699088214e-06,9.455432433257632e-06,2.878532086349945e-06,1.35684821108272e-05,4.288045845507404e-06,Unknown
0.07528845999999945,4.64159472834886e-06,7.857112084336612e-06,9.4455442064e-06,2.8760282512931883e-06,1.3568664336226284e-05,4.28928510849772e-06,Unknown
0.07580768999999954,4.640015901161078e-06,7.804029110821365e-06,9.439808690511402e-06,2.8732730407859192e-06,1.3566907752667973e-05,4.290724427624456e-06,Unknown
0.07632691999999963,4.6445436534474e-06,7.744967308929473e-06,9.436827219800764e-06,2.871921029531344e-06,1.3563986555278631e-05,4.290589891310102e-06,Unknown
0.07684614999999972,4.641658763902498e-06,7.674647239713636e-06,9.433244669749112e-06,2.8717401622817225e-06,1.356584945042422e-05,4.291544647056026e-06,Unknown
0.07736537999999982,4.640918735111984e-06,7.583979635977708e-06,9.426584223830398e-06,2.8716396326288694e-06,1.357483879617891e-05,4.289649514257752e-06,Unknown
0.07788461999999896,4.63929873464552e-06,7.4739163118330545e-06,9.419087050902993e-06,2.870093737377117e-06,1.358295311553344e-05,4.2870629181871184e-06,Unknown
0.07840384999999905,4.642266756179212e-06,7.362426402044947e-06,9.414703984487045e-06,2.864270114516084e-06,1.358363042405926e-05,4.287205001740259e-06,Unknown
0.07892307999999915,4.667419700664484e-06,7.269631685229506e-06,9.41194826196009e-06,2.8528345490483426e-06,1.3587644399668492e-05,4.286850939333207e-06,Unknown
0.07944230999999924,4.696055415866455e-06,7.220158007993263e-06,9.405740444133625e-06,2.8423669300700096e-06,1.3604556867032537e-05,4.284292063530642e-06,Unknown
0.07996153999999933,4.7055278203751625e-06,7.222604675250157e-06,9.388053024318637e-06,2.838976944958503e-06,1.3623677715299664e-05,4.280059373244703e-06,Unknown
0.08048076999999942,4.693787181358568e-06,7.249855234234086e-06,9.35554706512595e-06,2.839183406328e-06,1.3633937648582324e-05,4.276737158588592e-06,Unknown
0.08099999999999952,4.669793097091808e-06,7.275524221082091e-06,9.319321373693176e-06,2.8404074316013048e-06,1.363794853396726e-05,4.276242190545689e-06,Unknown
0.08151922999999961,4.661257020001768e-06,7.295314687638706e-06,9.300554007574278e-06,2.84162517131715e-06,1.3641826012225846e-05,4.275645231913547e-06,Unknown
0.0820384599999997,4.6622278847303575e-06,7.309975672243191e-06,9.31248590101232e-06,2.841625587181276e-06,1.3647790394306931e-05,4.274321492858562e-06,Unknown
0.0825576899999998,4.656141626552869e-06,7.31210424730899e-06,9.342852293086544e-06,2.845135678200214e-06,1.365169027368732e-05,4.274829883319872e-06,Unknown
0.08307691999999989,4.659011321798925e-06,7.292670607737109e-06,9.369640865534798e-06,2.858168941665477e-06,1.3649338522784844e-05,4.276898789203486e-06,Unknown
0.08359614999999998,4.652557004009484e-06,7.261119222163734e-06,9.387612725175802e-06,2.8747675019937307e-06,1.3645784710109475e-05,4.278477170630466e-06,Unknown
0.08411538000000007,4.6166595296923845e-06,7.235412870938623e-06,9.400034221025188e-06,2.878640516726405e-06,1.3644153776677048e-05,4.279368486616052e-06,Unknown
0.08463461999999922,4.58200825325214e-06,7.217641589662904e-06,9.407631647008517e-06,2.870950119201173e-06,1.3642611807074916e-05,4.279958689622528e-06,Unknown
0.08515384999999931,4.562701457839741e-06,7.195599174378228e-06,9.413812993712503e-06,2.867967381418858e-06,1.3645710421626007e-05,4.279379041228575e-06,Unknown
0.0856730799999994,4.550466444673153e-06,7.147745565407562e-06,9.425945834703616e-06,2.8697694395472064e-06,1.3647971101537591e-05,4.279168351448488e-06,Unknown
0.0861923099999995,4.550186130534805e-06,7.059076374577094e-06,9.46450026002843e-06,2.868389213213668e-06,1.3635142525043568e-05,4.279017822690215e-06,Unknown
0.08671153999999959,4.555383431418264e-06,6.95188279815395e-06,9.555865246804315e-06,2.8723264044468303e-06,1.3613480234675436e-05,4.276892423639689e-06,Unknown
0.08723076999999968,4.556588441356237e-06,6.870613441446962e-06,9.6883788872862e-06,2.892440117480607e-06,1.3597248423026394e-05,4.276311328335628e-06,Unknown
0.08774999999999977,4.557192316039931e-06,6.83590059907237e-06,9.80365339056197e-06,2.9159966225446616e-06,1.3586669822440616e-05,4.278664712806612e-06,Unknown
0.08826922999999987,4.55379543884542e-06,6.843980831280252e-06,9.85526178706544e-06,2.9252969542761797e-06,1.357555910960776e-05,4.28465465404907e-06,Unknown
0.08878845999999996,4.548997485218233e-06,6.890849230970888e-06,9.857727988183667e-06,2.9189599512342936e-06,1.3561577402548228e-05,4.296842198754965e-06,Unknown
0.08930769000000005,4.559723835423056e-06,6.975772282740729e-06,9.86338418983575e-06,2.899977926271092e-06,1.355299952057814e-05,4.308913711442339e-06,Unknown
0.08982692000000014,4.589175823440501e-06,7.090470358386501e-06,9.899912362247753e-06,2.8814815871263355e-06,1.355805032061937e-05,4.313753049911712e-06,Unknown
0.09034615000000024,4.6172940055688605e-06,7.209009066919378e-06,9.951225256437137e-06,2.884644325940526e-06,1.356677431506808e-05,4.3135713580845925e-06,Unknown
0.09086537999999855,4.622972576565912e-06,7.301210748269216e-06,9.994020764661417e-06,2.901421873554196e-06,1.3568815754544545e-05,4.312671193206422e-06,Unknown
0.09138461999999947,4.610849215232674e-06,7.3582505861963715e-06,1.0023907424626668e-05,2.907075886990586e-06,1.3567203444847244e-05,4.3125940220723575e-06,Unknown
0.09190384999999957,4.597816773350948e-06,7.39018948657146e-06,1.0048125145233822e-05,2.905332168079301e-06,1.3562616542009852e-05,4.312825024131764e-06,Unknown
0.09242307999999966,4.596598784046325e-06,7.4096743848706175e-06,1.0073906001438469e-05,2.9105688220228003e-06,1.3556038487398691e-05,4.311646343721039e-06,Unknown
0.09294230999999975,4.638442432065152e-06,7.42392058614573e-06,1.0107151144434713e-05,2.9182054948883238e-06,1.3550489360364575e-05,4.307465061451036e-06,Unknown
0.09346153999999984,4.7324083381369815e-06,7.433148286545564e-06,1.0155905638150534e-05,2.921495877037009e-06,1.3547891720116847e-05,4.301162760604962e-06,Unknown
0.09398076999999994,4.812065837877538e-06,7.436169403573471e-06,1.0226940968196812e-05,2.920115318919572e-06,1.3553070259320713e-05,4.296422531338849e-06,Unknown
0.09450000000000003,4.8253226516963325e-06,7.42908369287181e-06,1.0315225357066836e-05,2.9175570957603287e-06,1.356074827024489e-05,4.295562524120054e-06,Unknown
0.09501923000000012,4.803104835514761e-06,7.407714447628076e-06,1.0407189494650574e-05,2.9201708007885512e-06,1.355928648445095e-05,4.296705904596776e-06,Unknown
0.09553846000000021,4.784999035124698e-06,7.37705464682685e-06,1.0495457880871438e-05,2.9207825958453564e-06,1.3554780626157112e-05,4.297429132241911e-06,Unknown
0.09605768999999853,4.782991158537561e-06,7.3479185963322975e-06,1.057774769882468e-05,2.90887425589218e-06,1.3558658905295178e-05,4.297658396969048e-06,Unknown
0.09657691999999862,4.794951280695603e-06,7.329028108427762e-06,1.0644776966727466e-05,2.8947188570044763e-06,1.3565375021357813e-05,4.297855708818796e-06,Unknown
0.09709614999999872,4.796550363548528e-06,7.324360484915144e-06,1.068026535431354e-05,2.890528086689239e-06,1.3567983213906022e-05,4.298968801270314e-06,Unknown
0.09761537999999881,4.789258845244142e-06,7.333533324605697e-06,1.0678817684112469e-05,2.891281997652263e-06,1.3568054663447593e-05,4.301412742587918e-06,Unknown
0.09813461999999973,4.7979856038901605e-06,7.353789795257715e-06,1.0658087053633637e-05,2.89129319820864e-06,1.3568093893232329e-05,4.303046586234945e-06,Unknown
0.09865384999999982,4.810706167439311e-06,7.38014976400932e-06,1.0642272154584778e-05,2.8912091897577317e-06,1.3567883199329778e-05,4.303256505801854e-06,Unknown
0.09917307999999991,4.8054941628150886e-06,7.402958869230902e-06,1.063820458530972e-05,2.8884373735971837e-06,1.3563906785942451e-05,4.303262910100353e-06,Unknown
0.09969231,4.778051041919211e-06,7.411491933237829e-06,1.0633018775892792e-05,2.8817428415431884e-06,1.35604734887525e-05,4.304469471075527e-06,Unknown
0.1002115400000001,4.743256203841868e-06,7.400739505731633e-06,1.0610180641437218e-05,2.875188281001974e-06,1.3561707033579485e-05,4.310444940886579e-06,Unknown
0.10073077000000019,4.727019071910677e-06,7.373248328357331e-06,1.0576843889735925e-05,2.8693168219920337e-06,1.3556553616769529e-05,4.318884009816098e-06,Unknown
0.10124999999999851,4.726996613759193e-06,7.339646315203219e-06,1.0558367850989149e-05,2.8597062934091938e-06,1.3543316505310122e-05,4.321775979457183e-06,Unknown
0.1017692299999986,4.726401735822553e-06,7.313320145605394e-06,1.0556857446409953e-05,2.8486522241495685e-06,1.3535422912605663e-05,4.318019556549509e-06,Unknown
0.1022884599999987,4.72577894960627e-06,7.30239485788295e-06,1.055655389519757e-05,2.851675119530966e-06,1.353536592152177e-05,4.311982895751258e-06,Unknown
0.10280768999999879,4.729236029593546e-06,7.305415177061745e-06,1.0552627372339682e-05,2.867160959238848e-06,1.3537642592825313e-05,4.307077248800624e-06,Unknown
0.10332691999999888,4.733371640365241e-06,7.312612299438148e-06,1.0546348318632994e-05,2.874587462377974e-06,1.3533524734455791e-05,4.307878379747116e-06,Unknown
0.10384614999999897,4.735574356460677e-06,7.316009249967124e-06,1.0535242684455736e-05,2.8766900480201927e-06,1.3500670040134183e-05,4.321589757878494e-06,Unknown
0.10436537999999906,4.736771453051173e-06,7.314727116776551e-06,1.0518173961102086e-05,2.872745450077684e-06,1.3426573402956914e-05,4.352074564183218e-06,Unknown
0.10488461999999998,4.737681565668768e-06,7.310823042851848e-06,1.0509765495109528e-05,2.850897152364462e-06,1.334015329378238e-05,4.390642801886725e-06,Unknown
0.10540385000000008,4.737412976687792e-06,7.303431450140689e-06,1.0524967705040875e-05,2.8307793296400824e-06,1.3282661367094966e-05,4.4183699969884535e-06,Unknown
0.10592308000000017,4.725532055717894e-06,7.2867984434665e-06,1.0549151725638596e-05,2.827971493705216e-06,1.3262119012258818e-05,4.426930610052102e-06,Unknown
0.10644230999999849,4.700925837225073e-06,7.261248576961164e-06,1.0561236464275624e-05,2.832640446210479e-06,1.3259793866316849e-05,4.426664003586991e-06,Unknown
0.10696153999999858,4.691935492165684e-06,7.237845170079699e-06,1.0563389871725212e-05,2.8432048297385024e-06,1.3258914664826978e-05,4.4286206599172206e-06,Unknown
0.10748076999999867,4.698687085001926e-06,7.224744623898968e-06,1.0564193970219958e-05,2.8601695248704552e-06,1.325667618904059e-05,4.431745040659741e-06,Unknown
0.10799999999999876,4.695284240327892e-06,7.220725672823037e-06,1.0569053103697478e-05,2.875855653045108e-06,1.3257596308338262e-05,4.432683204386801e-06,Unknown
0.10851922999999886,4.698307261626857e-06,7.220576569009253e-06,1.0586258922943736e-05,2.884590046498979e-06,1.3260623855968865e-05,4.433528660990508e-06,Unknown
0.10903845999999895,4.705959439098681e-06,7.220255888510131e-06,1.0607280577120176e-05,2.8854560547807685e-06,1.3261898905026654e-05,4.429277754409683e-06,Unknown
0.10955768999999904,4.698971223249055e-06,7.219033229486233e-06,1.0611611313072897e-05,2.8802649741669464e-06,1.326060920660356e-05,4.412806101828256e-06,Unknown
0.11007691999999913,4.706699687920487e-06,7.217337606487875e-06,1.060154574157354e-05,2.8748176261452502e-06,1.3238251388638665e-05,4.391675609139883e-06,Unknown
0.11059614999999923,4.729438904299195e-06,7.214710376984823e-06,1.0583810166062682e-05,2.873998665477975e-06,1.3128632929563752e-05,4.376841544481955e-06,Unknown
0.11111537999999932,4.73668675349781e-06,7.213852836305664e-06,1.0552349600192411e-05,2.874786884110077e-06,1.2870202305571304e-05,4.36866617175556e-06,Unknown
0.11163462000000024,4.735625976179862e-06,7.220026194044322e-06,1.0513115918034665e-05,2.8739465420972264e-06,1.2553038323135452e-05,4.362075615852513e-06,Unknown
0.11215384999999856,4.735657297729148e-06,7.230979918610895e-06,1.0481880604289633e-05,2.871669484742484e-06,1.237983757314788e-05,4.353158951613225e-06,Unknown
0.11267307999999865,4.73541536575649e-06,7.239815768512004e-06,1.047048494204042e-05,2.867511307575329e-06,1.2361659005148854e-05,4.341348015391916e-06,Unknown
0.11319230999999874,4.742260953669407e-06,7.24076237466305e-06,1.0483704612444918e-05,2.861262427417358e-06,1.2357861493784247e-05,4.331331250844959e-06,Unknown
0.11371153999999883,4.755152005467138e-06,7.225017385386773e-06,1.051540314963496e-05,2.849739483470053e-06,1.2358069803429553e-05,4.328228521217885e-06,Unknown
0.11423076999999893,4.765330167122604e-06,7.196554473960804e-06,1.0553673540069128e-05,2.829171282406465e-06,1.2322174164211456e-05,4.328971350393861e-06,Unknown
0.11474999999999902,4.769720592568703e-06,7.1759357922467615e-06,1.0587750002446486e-05,2.802790507386366e-06,1.2217744947065384e-05,4.3254236489694965e-06,Unknown
0.11526922999999911,4.767530025909364e-06,7.1757514034509e-06,1.0609670827209772e-05,2.778355424918059e-06,1.2199851115059142e-05,4.319962567778503e-06,Unknown
0.1157884599999992,4.759746883672452e-06,7.194273874301237e-06,1.061849797934695e-05,2.7602659682330474e-06,1.2067584856067628e-05,4.319202546335892e-06,Unknown
0.1163076899999993,4.7494744114783225e-06,7.2236645510408175e-06,1.0620196851338654e-05,2.7467580290038157e-06,1.118506208500344e-05,4.3182625580401686e-06,Unknown
0.11682691999999939,4.7368154717735325e-06,7.25380539553284e-06,1.0619627027045995e-05,2.7342870247075124e-06,9.451701370526823e-06,4.3141783485198325e-06,Unknown
0.11734614999999948,4.713905751032735e-06,7.277005931377488e-06,1.061857972631373e-05,2.726576819672426e-06,7.877920943793369e-06,4.311127116862214e-06,Unknown
0.11786537999999958,4.676865214262204e-06,7.291417544046478e-06,1.061828907627016e-05,2.7249215177917822e-06,7.474902566570935e-06,4.31068699274349e-06,Unknown
0.11838461999999872,4.648010760163329e-06,7.297553529653242e-06,1.061843538391722e-05,2.7138762070914217e-06,7.482481078837961e-06,4.312963939763116e-06,Unknown
0.11890384999999881,4.644459545689598e-06,7.297225402950721e-06,1.0618436636759188e-05,2.6891911010660697e-06,7.0532874599351805e-06,4.317268900402182e-06,Unknown
0.1194230799999989,4.6477456044570906e-06,7.294455352056678e-06,1.0618869814484108e-05,2.66997384547405e-06,6.683131525740043e-06,4.321474519512826e-06,Unknown
0.119942309999999,4.646827771872065e-06,7.2919763290878575e-06,1.061834676852011e-05,2.6643391067588164e-06,6.673389922718932e-06,4.323640465658814e-06,Unknown
0.12046153999999909,4.65062327586642e-06,7.289790978881996e-06,1.0613343685298884e-05,2.663772286983213e-06,6.502889523830376e-06,4.323645862831531e-06,Unknown
0.12098076999999918,4.641122463292306e-06,7.287360668834784e-06,1.059941668329337e-05,2.663193327741804e-06,6.1658139779081605e-06,4.324107321378267e-06,Unknown
0.12149999999999928,4.597609696298268e-06,7.28369051484462e-06,1.0571012078638236e-05,2.6575147026513503e-06,6.009569280853959e-06,4.325873245166068e-06,Unknown
0.12201922999999937,4.562290565563962e-06,7.276028361005268e-06,1.0526946420841955e-05,2.6441741209875275e-06,6.007649711395732e-06,4.326137283260123e-06,Unknown
0.12253845999999946,4.566203614580203e-06,7.261114749546596e-06,1.0479362109120987e-05,2.6324790689372696e-06,6.020198667794255e-06,4.325037291373826e-06,Unknown
0.12305768999999955,4.576549129362155e-06,7.242354552956487e-06,1.0447990115703144e-05,2.627677200827268e-06,6.020615883527265e-06,4.324206477315088e-06,Unknown
0.12357691999999965,4.580983097126852e-06,7.230188244815611e-06,1.0439310425460691e-05,2.627187438216512e-06,6.0206009087301965e-06,4.323425891250048e-06,Unknown
0.12409614999999974,4.586091175771867e-06,7.2269432366912195e-06,1.0440109484347368e-05,2.630129019067303e-06,6.0111525723258185e-06,4.3251184613573855e-06,Unknown
0.12461537999999983,4.5988793402830015e-06,7.224804146049441e-06,1.043746149913627e-05,2.635284851421108e-06,5.984659616236729e-06,4.326259024962617e-06,Unknown
0.12513461999999898,4.627144470925403e-06,7.220423301421198e-06,1.0433772007177085e-05,2.6412034477282062e-06,5.96126007253057e-06,4.321262402266253e-06,Unknown
0.12565384999999907,4.630697908015417e-06,7.219494057450566e-06,1.043471069668427e-05,2.643596320092124e-06,5.954690788812311e-06,4.317045099442679e-06,Unknown
0.12617307999999916,4.599636387281223e-06,7.232891041808737e-06,1.0438263127316758e-05,2.644372034636236e-06,5.958143031778195e-06,4.3169109344172e-06,Unknown
0.12669230999999925,4.5920921846733e-06,7.269430645083351e-06,1.0442202372979591e-05,2.654522730534233e-06,5.961321521972356e-06,4.316501025377459e-06,Unknown
0.12721153999999935,4.612069475698183e-06,7.32542452031595e-06,1.044969298521238e-05,2.670099038461384e-06,5.965296882224659e-06,4.319902235932751e-06,Unknown
0.12773076999999944,4.62411796205801e-06,7.384944868143809e-06,1.0467813364715256e-05,2.67618191022173e-06,5.975978254455695e-06,4.327912037302824e-06,Unknown
0.12824999999999953,4.62818651742655e-06,7.434007167389122e-06,1.0496201659941385e-05,2.674529985767812e-06,5.99432650292104e-06,4.3322195335842e-06,Unknown
0.12876922999999962,4.631066337517294e-06,7.470258483826523e-06,1.0521080995158978e-05,2.676163714677354e-06,6.018672903938161e-06,4.330432695319116e-06,Unknown
0.12928845999999972,4.632543737801983e-06,7.500081484601914e-06,1.0531063716576269e-05,2.679833343865049e-06,6.042457127882356e-06,4.3293924979377525e-06,Unknown
0.1298076899999998,4.632794338064417e-06,7.527187948483086e-06,1.052878507532219e-05,2.680267576324296e-06,6.063959053232152e-06,4.330732288521879e-06,Unknown
0.1303269199999999,4.629432895840179e-06,7.542491616331575e-06,1.0529447174569868e-05,2.679986743286874e-06,6.0906964106862605e-06,4.310754959256012e-06,Unknown
0.13084615,4.630351658143414e-06,7.539474954807062e-06,1.0541824772917084e-05,2.6807058172216065e-06,6.11876400635414e-06,4.251371330504165e-06,Unknown
0.1313653800000001,4.64358606451224e-06,7.528512825196589e-06,1.0555405982803942e-05,2.679463002666568e-06,6.136350535500723e-06,4.189768057802976e-06,Unknown
0.13188461999999923,4.657916965716805e-06,7.519803221080511e-06,1.0560936121965373e-05,2.674167878336949e-06,6.143245156829433e-06,4.16473892589361e-06,Unknown
0.13240384999999932,4.661083219866443e-06,7.5156488745479614e-06,1.0558233062728646e-05,2.6656326152353936e-06,6.146742770851596e-06,4.161569937896038e-06,Unknown
0.13292307999999942,4.655547536660677e-06,7.5129138840436015e-06,1.0550521027415884e-05,2.6581041845563286e-06,6.158423599190776e-06,4.160522410043952e-06,Unknown
0.1334423099999995,4.6484224546633765e-06,7.5000740382605715e-06,1.0546633321403323e-05,2.6545606239428887e-06,6.185216497300504e-06,4.157667460636786e-06,Unknown
0.1339615399999996,4.638973939325476e-06,7.465701555069619e-06,1.054804492269023e-05,2.652962763863371e-06,6.207845449151233e-06,4.151130986662345e-06,Unknown
0.1344807699999997,4.625965368373281e-06,7.405233529866522e-06,1.0546295823333828e-05,2.6490775512518214e-06,6.207444476639416e-06,4.147954576542131e-06,Unknown
0.1349999999999998,4.621528006396473e-06,7.322597732264562e-06,1.054032330579356e-05,2.631722090591396e-06,6.202413122104351e-06,4.15113622284027e-06,Unknown
0.13551922999999988,4.635939595741597e-06,7.237641599754072e-06,1.0535403275535809e-05,2.584798753388429e-06,6.203987147172447e-06,4.153401930561716e-06,Unknown
0.13603845999999997,4.652751628844887e-06,7.180227803209372e-06,1.053273366401946e-05,2.515995892485217e-06,6.2031134673261e-06,4.154089609120493e-06,Unknown
0.13655769000000006,4.656157182623873e-06,7.159468004530205e-06,1.0532369932562392e-05,2.461925769838431e-06,6.206367463752236e-06,4.15845995647976e-06,Unknown
0.13707692000000016,4.657380621574729e-06,7.152727472552423e-06,1.0541638433820927e-05,2.441395662536889e-06,6.212049635107766e-06,4.168630489100247e-06,Unknown
0.13759614999999847,4.666617349078553e-06,7.13582183889404e-06,1.0577046303165296e-05,2.4384454516731198e-06,6.212840989097003e-06,4.181335626387823e-06,Unknown
0.13811537999999857,4.681004695074135e-06,7.102949563581516e-06,1.064765790814182e-05,2.4378794106592183e-06,6.20788867629683e-06,4.190892503738663e-06,Unknown
0.1386346199999995,4.696054262124014e-06,7.062112496147172e-06,1.0739238513333063e-05,2.4350965572191883e-06,6.194990188274335e-06,4.195031982356e-06,Unknown
0.13915384999999958,4.705559702281051e-06,7.029421327096458e-06,1.0828268331920308e-05,2.424538617108236e-06,6.191593111167031e-06,4.195815918484091e-06,Unknown
0.13967307999999967,4.7118418241674775e-06,7.016454812162029e-06,1.0900551546127088e-05,2.405914968518751e-06,6.203356019754504e-06,4.196157609341102e-06,Unknown
0.14019230999999976,4.719136715386967e-06,7.016777040747647e-06,1.0951252824575109e-05,2.386842373052417e-06,6.211626296084052e-06,4.1954865709925465e-06,Unknown
0.14071153999999986,4.718592497968246e-06,7.015731396393755e-06,1.0981035730113718e-05,2.372935068717843e-06,6.212015167574793e-06,4.194786275815683e-06,Unknown
0.14123076999999995,4.712720569921082e-06,7.0080956876706985e-06,1.0997189402234956e-05,2.364953146182386e-06,6.207814919287196e-06,4.195751418671412e-06,Unknown
0.14175000000000004,4.711798232167508e-06,6.997100090352306e-06,1.0999999704885705e-05,2.3622604367936536e-06,6.20888743502423e-06,4.193974483819877e-06,Unknown
0.14226923000000014,4.710914709581804e-06,6.987564360620659e-06,1.0951053535563953e-05,2.3601631129661392e-06,6.223137957548739e-06,4.187681389086312e-06,Unknown
0.14278846000000023,4.70783036094872e-06,6.985293427446191e-06,1.0798375444243973e-05,2.3533895724484227e-06,6.240460898307117e-06,4.178809674824703e-06,Unknown
0.14330768999999854,4.710915550962651e-06,6.995327170859194e-06,1.0555124834552671e-05,2.3469080937121565e-06,6.252062614761018e-06,4.163885618967562e-06,Unknown
0.14382691999999864,4.723610788355517e-06,7.016677378169201e-06,1.0296157153371113e-05,2.3460873705040143e-06,6.25868390078136e-06,4.13286916082699e-06,Unknown
0.14434614999999873,4.74026125139779e-06,7.037900522423805e-06,1.0080769820037928e-05,2.346225438100006e-06,6.260502918105784e-06,4.083735377170284e-06,Unknown
0.14486537999999882,4.758030530372642e-06,7.04565877836573e-06,9.927288432841084e-06,2.346943549880462e-06,6.2585964234100986e-06,4.039213158723005e-06,Unknown
0.14538461999999974,4.790402755269519e-06,7.045751377071236e-06,9.83803355134134e-06,2.3553830837813765e-06,6.2628588403778965e-06,4.0211361597159e-06,Unknown
0.14590384999999984,4.842688258034844e-06,7.056266882633112e-06,9.806263758999089e-06,2.3732496832413954e-06,6.2774551664031214e-06,4.020756131660281e-06,Unknown
0.14642307999999993,4.881792876673204e-06,7.077409695006405e-06,9.804514616810687e-06,2.396261936573172e-06,6.293043729622597e-06,4.02258215423503e-06,Unknown
0.14694231000000002,4.888662101843818e-06,7.098262801302338e-06,9.798411229202233e-06,2.417901755145037e-06,6.306316126594522e-06,4.024867674139706e-06,Unknown
0.1474615400000001,4.890674662953159e-06,7.123266628894678e-06,9.772888181304912e-06,2.429737182266377e-06,6.327771338966121e-06,4.030369426758762e-06,Unknown
0.1479807700000002,4.903026518113072e-06,7.163917460871653e-06,9.73022511049043e-06,2.426773110879253e-06,6.381295112385772e-06,4.03957292745952e-06,Unknown
0.14849999999999852,4.910591229596147e-06,7.216885712786632e-06,9.675568734214984e-06,2.413255899869497e-06,6.478429682711692e-06,4.044231760471282e-06,Unknown
0.14901922999999861,4.911318809213224e-06,7.271825048363942e-06,9.61509921374535e-06,2.399372275705785e-06,6.58393755177716e-06,4.041372041343093e-06,Unknown
0.1495384599999987,4.906683395938727e-06,7.317386367440281e-06,9.558185408165169e-06,2.3924306399394138e-06,6.657203894785292e-06,4.052964972263141e-06,Unknown
0.1500576899999988,4.900555878307859e-06,7.341166918749206e-06,9.510474898895716e-06,2.3908474117126183e-06,6.699460755064453e-06,4.09115036719356e-06,Unknown
0.1505769199999989,4.923621098844316e-06,7.348033468819476e-06,9.46942004486184e-06,2.393526180074407e-06,6.734254976926908e-06,4.131946944321418e-06,Unknown
0.15109614999999899,4.969180938103958e-06,7.346454572295628e-06,9.432423989404214e-06,2.411630446878361e-06,6.783018139686016e-06,4.150435471684898e-06,Unknown
0.15161537999999908,4.996840363490706e-06,7.332521849399555e-06,9.402095152417898e-06,2.447740833171502e-06,6.834453103026333e-06,4.150927304041733e-06,Unknown
0.15213462,5.002633026858181e-06,7.315884483633018e-06,9.388748888456751e-06,2.480590204217019e-06,6.849996276855085e-06,4.162185152194176e-06,Unknown
0.1526538500000001,4.995949436273925e-06,7.312317501012611e-06,9.39982339629104e-06,2.495406006461096e-06,6.835378682054541e-06,4.202515660267572e-06,Unknown
0.15317308000000018,4.990070315558409e-06,7.31148953045123e-06,9.419897467568685e-06,2.4990364023073987e-06,6.824656858475607e-06,4.251440152165234e-06,Unknown
0.1536923099999985,4.994347573467001e-06,7.291398500040564e-06,9.43243430417427e-06,2.500717022534166e-06,6.824297319734189e-06,4.279414791537433e-06,Unknown
0.1542115399999986,4.990927223015557e-06,7.248883773565778e-06,9.441039927751894e-06,2.502939994903124e-06,6.835302075929827e-06,4.284937511053946e-06,Unknown
0.15473076999999869,4.97464974967612e-06,7.200815019891593e-06,9.443829381421449e-06,2.5053789738464426e-06,6.849744672109289e-06,4.283136102785408e-06,Unknown
0.15524999999999878,4.967116826291865e-06,7.1623125847209325e-06,9.41458927452749e-06,2.507234825024606e-06,6.851544280598766e-06,4.282481399786137e-06,Unknown
0.15576922999999887,4.975120016952795e-06,7.134091491222327e-06,9.326181249599094e-06,2.5084950911761984e-06,6.84201946079002e-06,4.282449871835683e-06,Unknown
0.15628845999999896,4.986180947700631e-06,7.112158201664776e-06,9.192635905507316e-06,2.50959199206382e-06,6.827594622377351e-06,4.287891122160263e-06,Unknown
0.15680768999999906,4.993366345468517e-06,7.094916232618548e-06,9.067781685213538e-06,2.5092682029362377e-06,6.817902007994212e-06,4.3127444683798165e-06,Unknown
0.15732691999999915,4.995759607275138e-06,7.0797539575918856e-06,8.99101290262401e-06,2.503377362368616e-06,6.818242319660664e-06,4.34878533470324e-06,Unknown
0.15784614999999924,4.9954055929012765e-06,7.062379855416546e-06,8.960248667280862e-06,2.49296133825079e-06,6.819182204481319e-06,4.366567686453867e-06,Unknown
0.15836537999999933,4.991314389081814e-06,7.040587722786985e-06,8.95604626038724e-06,2.487267430178178e-06,6.819091016597841e-06,4.366779323745833e-06,Unknown
0.15888461999999848,4.97870306182755e-06,7.018986250640684e-06,8.96190880291449e-06,2.4879163432766584e-06,6.820376867339906e-06,4.36633309448025e-06,Unknown
0.15940384999999857,4.967052836331393e-06,7.008805604180562e-06,8.967735899198772e-06,2.4887604014719105e-06,6.817336927389132e-06,4.3662559174055154e-06,Unknown
0.15992307999999866,4.961532769147746e-06,7.01032647398986e-06,8.970053851610587e-06,2.4889113313493512e-06,6.820236728924985e-06,4.366688941807153e-06,Unknown
0.16044230999999876,4.961839890066304e-06,7.012559268129251e-06,8.969176119455044e-06,2.489729046976005e-06,6.845985920209372e-06,4.366571579431675e-06,Unknown
0.16096153999999885,4.985484048041997e-06,7.012787921749288e-06,8.967902026528728e-06,2.4870818870596594e-06,6.878876938367569e-06,4.372802059454738e-06,Unknown
0.16148076999999894,5.024598349929881e-06,7.012666399887926e-06,8.968042770007326e-06,2.474792770836858e-06,6.893891483473895e-06,4.390831191374792e-06,Unknown
0.16199999999999903,5.043448241872539e-06,7.012192553232055e-06,8.966353602316629e-06,2.454384398836098e-06,6.895828220169301e-06,4.402071732213923e-06,Unknown
0.16251922999999913,5.0440628107059e-06,7.011960166182727e-06,8.959078239567824e-06,2.4359960956704867e-06,6.8960017003274455e-06,4.401593072867629e-06,Unknown
0.16303845999999922,5.040944337803567e-06,7.012310268138491e-06,8.946723414583532e-06,2.4248503466726373e-06,6.897813224258812e-06,4.402510367251972e-06,Unknown
0.1635576899999993,5.028955584825068e-06,7.012466955428095e-06,8.93431285049794e-06,2.416047045483328e-06,6.905286244215264e-06,4.4030177566653245e-06,Unknown
0.1640769199999994,5.023383781596081e-06,7.012523400225836e-06,8.926349671083037e-06,2.4085121259059624e-06,6.913976734606814e-06,4.405513111889434e-06,Unknown
0.1645961499999995,5.027686182870629e-06,7.019638770661192e-06,8.920035669668585e-06,2.404935194378403e-06,6.9178480052021085e-06,4.4217540229031294e-06,Unknown
0.1651153799999996,5.027698929846202e-06,7.03660133408646e-06,8.908777116869653e-06,2.402400677752733e-06,6.918653013601918e-06,4.445423926290551e-06,Unknown
0.16563461999999873,5.031345416777398e-06,7.049962579003327e-06,8.891877878557271e-06,2.4030386705835303e-06,6.91980478840327e-06,4.461850888111401e-06,Unknown
0.16615384999999883,5.017208069266924e-06,7.051962722453994e-06,8.876677392594665e-06,2.414740036860147e-06,6.927823632691773e-06,4.468379746931444e-06,Unknown
0.16667307999999892,4.980742308047769e-06,7.051527913843565e-06,8.867435271833908e-06,2.435075201284713e-06,6.9389479031997e-06,4.468122408951821e-06,Unknown
0.167192309999999,4.972901946864921e-06,7.050618628870066e-06,8.859461073192141e-06,2.4536710902806142e-06,6.940627040008718e-06,4.464659531686096e-06,Unknown
0.1677115399999991,4.97183658849148e-06,7.037331775280379e-06,8.8431013792218e-06,2.4650739812118843e-06,6.942901897394471e-06,4.463199778288569e-06,Unknown
0.1682307699999992,4.926504583436037e-06,7.0086748136396085e-06,8.809336723050896e-06,2.4698748673093257e-06,6.95070274776547e-06,4.464869978751477e-06,Unknown
0.1687499999999993,4.8753702427068585e-06,6.979207225373752e-06,8.765867195287534e-06,2.470001239866387e-06,6.949852368305255e-06,4.468021753347602e-06,Unknown
0.16926922999999938,4.857451698354543e-06,6.962399901511701e-06,8.729802064176511e-06,2.4692583496605394e-06,6.948631752168048e-06,4.4729843869667815e-06,Unknown
0.16978845999999947,4.856145786084179e-06,6.962166591572922e-06,8.706550027743216e-06,2.470882834676984e-06,6.952713107267859e-06,4.476597989368406e-06,Unknown
0.17030768999999957,4.859817968868236e-06,6.9796739333741536e-06,8.691718587067764e-06,2.47427222323358e-06,6.95104221063668e-06,4.476403333468044e-06,Unknown
0.17082691999999966,4.858598455073865e-06,7.008555906246597e-06,8.678294520393375e-06,2.476307832800697e-06,6.946162061958674e-06,4.47776973540229e-06,Unknown
0.17134614999999975,4.827232422738583e-06,7.036565953335801e-06,8.663185400825204e-06,2.475305427478298e-06,6.943034493596267e-06,4.481462333225451e-06,Unknown
0.17186537999999985,4.759616117778997e-06,7.059189040745244e-06,8.650423135008353e-06,2.4736113211452427e-06,6.940261167569647e-06,4.482832656787903e-06,Unknown
0.172384619999999,4.691538184267245e-06,7.077693193430444e-06,8.644650614219059e-06,2.472706098037955e-06,6.937155103367389e-06,4.482665025737059e-06,Unknown
0.17290384999999908,4.665418491551817e-06,7.089225399620669e-06,8.643873158561777e-06,2.471957117731724e-06,6.939387126468071e-06,4.481902940598215e-06,Unknown
0.17342307999999917,4.674204646363868e-06,7.089874806452728e-06,8.644121931312114e-06,2.4717504708024946e-06,6.960982334189143e-06,4.4818233306279095e-06,Unknown
0.17394230999999927,4.682707252078208e-06,7.085965959708823e-06,8.642059389146854e-06,2.47128582423258e-06,6.995341183549318e-06,4.483030580753776e-06,Unknown
0.17446153999999936,4.68338253415712e-06,7.085167768422495e-06,8.623406743428503e-06,2.468085791897097e-06,7.013720480526631e-06,4.478908845711869e-06,Unknown
0.17498076999999945,4.682065030982847e-06,7.084928900801958e-06,8.579560887826827e-06,2.4670534059052846e-06,7.013504354031104e-06,4.467814161336756e-06,Unknown
0.17549999999999955,4.681295079949274e-06,7.084144153027903e-06,8.536859728162262e-06,2.4722678279283247e-06,7.008699520045528e-06,4.457598068104663e-06,Unknown
0.17601922999999964,4.679155908536387e-06,7.081032970816445e-06,8.52333646992828e-06,2.4707440525291127e-06,6.999112133464818e-06,4.453784130920082e-06,Unknown
0.17653845999999973,4.662896169807499e-06,7.056197732434072e-06,8.52655728177745e-06,2.457035118803843e-06,6.9962597504909e-06,4.4537574540906085e-06,Unknown
0.17705768999999982,4.650714445401131e-06,6.98744244102671e-06,8.514104098243655e-06,2.449898383319405e-06,7.005440614358134e-06,4.45353811775598e-06,Unknown
0.17757691999999992,4.657896935913148e-06,6.885723029439592e-06,8.46826658396887e-06,2.4557242823790958e-06,7.008299037063635e-06,4.454534462931267e-06,Unknown
0.17809615,4.660664517837559e-06,6.788260863572672e-06,8.400971313137934e-06,2.4607751238087143e-06,7.009397105855894e-06,4.4582577576683015e-06,Unknown
0.1786153800000001,4.662176929159336e-06,6.716800241565728e-06,8.356441526914669e-06,2.465203208510573e-06,7.017800978523942e-06,4.463239539017755e-06,Unknown
0.17913461999999925,4.662965066622736e-06,6.668720443225744e-06,8.376652734680692e-06,2.476012700179481e-06,7.018230984917196e-06,4.468819966654005e-06,Unknown
0.17965384999999934,4.648393393053499e-06,6.636944186178872e-06,8.456821834576963e-06,2.4866543283311392e-06,7.000764522103064e-06,4.47719308917624e-06,Unknown
0.18017307999999943,4.643911662202404e-06,6.621020456991105e-06,8.558774264137552e-06,2.4910422066997296e-06,6.961135432234681e-06,4.489142887623533e-06,Unknown
0.18069230999999952,4.653393460970446e-06,6.624955082976419e-06,8.653413013046022e-06,2.4915610396922235e-06,6.909683465410261e-06,4.498762318884376e-06,Unknown
0.18121153999999962,4.645660714126489e-06,6.646434090639636e-06,8.73748820273924e-06,2.4916157807096104e-06,6.877325663442802e-06,4.501645932840739e-06,Unknown
0.1817307699999997,4.628497240341897e-06,6.672326767008675e-06,8.819294241302081e-06,2.492820036108612e-06,6.868158229644556e-06,4.5015142365507006e-06,Unknown
0.1822499999999998,4.624771503136741e-06,6.689717052419171e-06,8.890447185193619e-06,2.4944012363495307e-06,6.8620123516252265e-06,4.501631804963784e-06,Unknown
0.1827692299999999,4.635599769829535e-06,6.695314305573599e-06,8.926223965436043e-06,2.4948194436005376e-06,6.838075161918567e-06,4.501555418011063e-06,Unknown
0.18328846,4.652592717600532e-06,6.6936149329231695e-06,8.925168333805457e-06,2.493591460973453e-06,6.780158185056095e-06,4.4999325288338e-06,Unknown
0.18380769000000008,4.663881051290819e-06,6.691028855166078e-06,8.937576180819738e-06,2.491763373831162e-06,6.71199337177941e-06,4.494907818034884e-06,Unknown
0.18432692000000017,4.667325782195473e-06,6.691108903683455e-06,9.039605051071016e-06,2.4901611000291822e-06,6.671640218288339e-06,4.48714674568399e-06,Unknown
0.1848461499999985,4.667330992617761e-06,6.695838259573094e-06,9.25768956053211e-06,2.488678366183172e-06,6.659123554580299e-06,4.478329949282486e-06,Unknown
0.18536537999999858,4.652362884366787e-06,6.705261523633363e-06,9.525318119024214e-06,2.4860011869315345e-06,6.6591727213079e-06,4.46616718156951e-06,Unknown
0.1858846199999995,4.619404607585329e-06,6.714292540694938e-06,9.743940067099403e-06,2.4776357299856568e-06,6.66291912720413e-06,4.456004337240713e-06,Unknown
0.1864038499999996,4.5937393971605486e-06,6.717610426103462e-06,9.86917683099461e-06,2.4601594201305485e-06,6.660930639140201e-06,4.460030671037495e-06,Unknown
0.1869230799999997,4.584641024813688e-06,6.715339980441513e-06,9.919301044974716e-06,2.438228445869882e-06,6.649986105507186e-06,4.485816963482193e-06,Unknown
0.18744230999999978,4.581888254365414e-06,6.71185765368406e-06,9.93373348969649e-06,2.422095428586778e-06,6.638969841728119e-06,4.4918672001221216e-06,Unknown
0.18796153999999987,4.582077570345155e-06,6.710051077556e-06,9.94753808390642e-06,2.417319782627012e-06,6.635397236159745e-06,4.379475223203704e-06,Unknown
0.18848076999999996,4.587065578967345e-06,6.7087455760004455e-06,9.98113051709479e-06,2.421525553451597e-06,6.641675472541037e-06,4.154375807101693e-06,Unknown
0.18900000000000006,4.5998307465281885e-06,6.71294580604717e-06,1.0030829986208795e-05,2.427454545425139e-06,6.65621857789627e-06,3.973816587149174e-06,Unknown
0.18951923000000015,4.6199072294860685e-06,6.73298594894175e-06,1.0077013987530793e-05,2.4269263720067707e-06,6.6672050165540416e-06,3.926578135980735e-06,Unknown
0.19003846000000024,4.635847167711086e-06,6.76671465090773e-06,1.0107431688027166e-05,2.420039925603065e-06,6.6690062394523566e-06,3.929103864177343e-06,Unknown
0.19055768999999856,4.639989766637675e-06,6.801266767155007e-06,1.0124690989943412e-05,2.416234481793203e-06,6.673281809960824e-06,3.87706868008923e-06,Unknown
0.19107691999999865,4.640373558035336e-06,6.82696345021729e-06,1.0135734259415078e-05,2.4165956658064577e-06,6.692837490668872e-06,3.777037359383103e-06,Unknown
0.19159614999999874,4.6412878724320274e-06,6.839878208174121e-06,1.0142661348372966e-05,2.4156665516335484e-06,6.726146594358309e-06,3.7001008045010127e-06,Unknown
0.19211537999999884,4.647625226846186e-06,6.840899439435686e-06,1.014035844027451e-05,2.41486020679799e-06,6.755270608454297e-06,3.66354792390826e-06,Unknown
0.19263461999999976,4.655214404470355e-06,6.836200577224763e-06,1.0124610921437689e-05,2.415659209281425e-06,6.763198579092559e-06,3.650036096708968e-06,Unknown
0.19315384999999985,4.652325274614318e-06,6.831179844497474e-06,1.0103170579819888e-05,2.4175212233035734e-06,6.753805634421232e-06,3.6636310942774896e-06,Unknown
0.19367307999999994,4.6510147466551545e-06,6.826173692770802e-06,1.008890435682795e-05,2.4209852571867894e-06,6.740714161133387e-06,3.697621513891456e-06,Unknown
0.19419231000000003,4.648137366216006e-06,6.820871192311846e-06,1.008434430915399e-05,2.425926836571783e-06,6.726203119136217e-06,3.7261724623113886e-06,Unknown
0.19471154000000013,4.631702145018401e-06,6.814957636501385e-06,1.0085612423461084e-05,2.4293208446541542e-06,6.705497444096922e-06,3.737084633727711e-06,Unknown
0.19523077000000022,4.62472516398835e-06,6.806130804129463e-06,1.0091319477072435e-05,2.429792173598368e-06,6.677445924796309e-06,3.735128043668595e-06,Unknown
0.19574999999999854,4.632739297560102e-06,6.794054198035346e-06,1.0097752960712008e-05,2.430056930209928e-06,6.648125277956389e-06,3.7277078412631874e-06,Unknown
0.19626922999999863,4.636507655589681e-06,6.783905409485687e-06,1.0099664018632696e-05,2.434879507792422e-06,6.624395226646517e-06,3.7209038952420944e-06,Unknown
0.19678845999999872,4.636281007533246e-06,6.7795714274512704e-06,1.0097659054779572e-05,2.448054970443246e-06,6.601983839545336e-06,3.719114046928528e-06,Unknown
0.19730768999999881,4.636922213413704e-06,6.779279485322179e-06,1.009607016832201e-05,2.461957165289356e-06,6.563094826496468e-06,3.723100471513492e-06,Unknown
0.1978269199999989,4.638020022822417e-06,6.780621196083087e-06,1.009711462115132e-05,2.463420586615865e-06,6.47675279272059e-06,3.7310715903147594e-06,Unknown
0.198346149999999,4.64031236633949e-06,6.7824242913247785e-06,1.0100179284103092e-05,2.4586173780526357e-06,6.328728218778703e-06,3.739366293313183e-06,Unknown
0.1988653799999991,4.643373951318994e-06,6.783841027533167e-06,1.0104748473286755e-05,2.45859861763904e-06,6.1685899681775954e-06,3.744011665837319e-06,Unknown
0.19938462,4.646789644611864e-06,6.784998598200364e-06,1.0111800690627536e-05,2.4568135524799657e-06,6.074104504108837e-06,3.745179724428427e-06,Unknown
0.1999038500000001,4.65118472945795e-06,6.784566903997997e-06,1.0119903835310051e-05,2.458249125405656e-06,6.060532574607945e-06,3.743677229518221e-06,Unknown
0.2004230800000002,4.663214822998722e-06,6.779802868639495e-06,1.0125404757122398e-05,2.4763038694925457e-06,6.085161660600411e-06,3.7400298571043455e-06,Unknown
0.20094230999999851,4.690019218001451e-06,6.774886049224584e-06,1.0127875640834845e-05,2.495109978657793e-06,6.112984881245667e-06,3.738742813947473e-06,Unknown
0.2014615399999986,4.726512478371456e-06,6.775097640637845e-06,1.0129193204454375e-05,2.49894547433958e-06,6.132007008538597e-06,3.74249993136128e-06,Unknown
0.2019807699999987,4.7515143200761445e-06,6.777595857162837e-06,1.013069935040692e-05,2.499491373434207e-06,6.137473281737871e-06,3.752814718391967e-06,Unknown
0.2024999999999988,4.754157891374769e-06,6.782177828521209e-06,1.0133066131605264e-05,2.5024352287751083e-06,6.133038270101614e-06,3.7702579446169674e-06,Unknown
0.20301922999999888,4.753743969298226e-06,6.78808079294921e-06,1.0136250559339031e-05,2.5031978468634277e-06,6.155649271198116e-06,3.784105413936664e-06,Unknown
0.20353845999999898,4.74863187967123e-06,6.793164146132902e-06,1.0139785075268308e-05,2.5031880060558105e-06,6.228314019873055e-06,3.787557205402283e-06,Unknown
0.20405768999999907,4.721663541596234e-06,6.800396214006096e-06,1.0143866381219416e-05,2.5032433050356727e-06,6.286268914534832e-06,3.787565808953864e-06,Unknown
0.20457691999999916,4.692022959204703e-06,6.798718096172274e-06,1.0151176204520232e-05,2.5035274172717782e-06,6.274425432173427e-06,3.787588786031309e-06,Unknown
0.20509614999999926,4.6792026143129376e-06,6.776278802829771e-06,1.017058115779181e-05,2.505213069382853e-06,6.234885144729813e-06,3.787821995058111e-06,Unknown
0.20561537999999935,4.677211447543331e-06,6.746308408146724e-06,1.0221604757955844e-05,2.506743620378176e-06,6.21225438433713e-06,3.788453635429589e-06,Unknown
0.2061346199999985,4.676399920026902e-06,6.72310456600618e-06,1.031968623836315e-05,2.5056180006755357e-06,6.205638237494612e-06,3.7927165061731e-06,Unknown
0.20665384999999858,4.673233192838672e-06,6.706635742429366e-06,1.0443105946705596e-05,2.504522220762776e-06,6.215324228603567e-06,3.809207315723585e-06,Unknown
0.20717307999999868,4.6735509988138826e-06,6.696379238881304e-06,1.0543412999840668e-05,2.5071928284773976e-06,6.229013696496719e-06,3.833227257935828e-06,Unknown
0.20769230999999877,4.677899796399899e-06,6.699386863311984e-06,1.0594976759704667e-05,2.5066102413123752e-06,6.228173560511094e-06,3.850272126689089e-06,Unknown
0.20821153999999886,4.678871049625875e-06,6.721748719897057e-06,1.0607436924956935e-05,2.492838207120093e-06,6.224690660632443e-06,3.856792374835072e-06,Unknown
0.20873076999999896,4.679016332368539e-06,6.755893524695368e-06,1.0601535585613209e-05,2.469948337860005e-06,6.225184611789705e-06,3.856870199338922e-06,Unknown
0.20924999999999905,4.677141736921144e-06,6.786854933802895e-06,1.0592244548865051e-05,2.4524483770737512e-06,6.226433080074214e-06,3.854752461834354e-06,Unknown
0.20976922999999914,4.667556029501847e-06,6.806036666855304e-06,1.058543894031763e-05,2.447906023824153e-06,6.2288687043000646e-06,3.856592891538149e-06,Unknown
0.21028845999999923,4.662358177507478e-06,6.814522640378622e-06,1.0580567511317932e-05,2.4480224691719364e-06,6.207510090261194e-06,3.866804065016305e-06,Unknown
0.21080768999999933,4.664987087824043e-06,6.817324742724005e-06,1.0572706999613562e-05,2.4462683331631817e-06,6.15498574183297e-06,3.8785451896273885e-06,Unknown
0.21132691999999942,4.659714761114805e-06,6.817958428680311e-06,1.0545203809314907e-05,2.4467169910032112e-06,6.108252941930259e-06,3.883961564526195e-06,Unknown
0.2118461499999995,4.6492304279008185e-06,6.817896332566789e-06,1.0471551603576634e-05,2.441227597603173e-06,6.08759561523177e-06,3.885559151619439e-06,Unknown
0.2123653799999996,4.64667370112532e-06,6.817928898463329e-06,1.035342569570678e-05,2.417431202707653e-06,6.0817960797910684e-06,3.8854697625532765e-06,Unknown
0.21288461999999875,4.6510781639099e-06,6.817216694090105e-06,1.0242274116038246e-05,2.3896955278024364e-06,6.079595107199199e-06,3.882885604797554e-06,Unknown
0.21340384999999884,4.65754418778812e-06,6.804889591952239e-06,1.0190299831496935e-05,2.37788534096956e-06,6.075890669854835e-06,3.876500313988808e-06,Unknown
0.21392307999999893,4.658043577313939e-06,6.757974565411151e-06,1.0195979446283618e-05,2.3767691714722936e-06,6.064399039814544e-06,3.864006955610326e-06,Unknown
0.21444230999999903,4.641290714387796e-06,6.664123967529944e-06,1.0212422966623912e-05,2.376751145432344e-06,6.037509352358466e-06,3.850184298174231e-06,Unknown
0.21496153999999912,4.609344956092092e-06,6.536019006049246e-06,1.0203880904455268e-05,2.3749095084123235e-06,5.999169774406054e-06,3.845546031752771e-06,Unknown
0.2154807699999992,4.577428402852317e-06,6.402528763520923e-06,1.0179157863220836e-05,2.361102598670228e-06,5.974029094500884e-06,3.850105904506933e-06,Unknown
0.2159999999999993,4.561328773523343e-06,6.298639830606168e-06,1.0162498736059818e-05,2.3379554630145887e-06,5.972284334852797e-06,3.854901023716162e-06,Unknown
0.2165192299999994,4.561436223252491e-06,6.237387212740401e-06,1.016096447084488e-05,2.329061541880288e-06,5.974427790486026e-06,3.8564344239919375e-06,Unknown
0.2170384599999995,4.562327494512642e-06,6.200898532076721e-06,1.0163581218268922e-05,2.331017850281541e-06,5.9746491365396e-06,3.856219918828478e-06,Unknown
0.21755768999999958,4.554961533051048e-06,6.1739047210169804e-06,1.0155375167758112e-05,2.3229883335555e-06,5.979391683321291e-06,3.855221035662108e-06,Unknown
0.21807691999999967,4.52222344560015e-06,6.154878539500025e-06,1.0129992974873356e-05,2.3126392320883626e-06,5.9860187472892e-06,3.857053924103248e-06,Unknown
0.21859614999999977,4.443449015767075e-06,6.148853324728654e-06,1.0084393288504672e-05,2.308299336246018e-06,5.987052106420055e-06,3.88058937154299e-06,Unknown
0.21911537999999986,4.358815512941154e-06,6.158359497412629e-06,1.0013495603085036e-05,2.3107128066160435e-06,5.973642298601819e-06,3.9417864429977005e-06,Unknown
0.219634619999999,4.333013723416232e-06,6.17072670975777e-06,9.918996470465951e-06,2.3189047113016147e-06,5.955784912337557e-06,4.011951295835055e-06,Unknown
0.2201538499999991,4.343158687590547e-06,6.175458744768854e-06,9.81275055386938e-06,2.3114200287320963e-06,5.9523993754705055e-06,4.0516073923255885e-06,Unknown
0.2206730799999992,4.3326670386985575e-06,6.178608290854595e-06,9.710093038206347e-06,2.2875579283827384e-06,5.951068630201764e-06,4.063120213573839e-06,Unknown
0.22119230999999928,4.312362759833918e-06,6.190834114457864e-06,9.623531605261846e-06,2.2751448351129816e-06,5.935932487388524e-06,4.065969262550372e-06,Unknown
0.22171153999999937,4.3071796081242646e-06,6.22127805278545e-06,9.561879540990414e-06,2.275837322885902e-06,5.922279133046961e-06,4.0689174815960015e-06,Unknown
0.22223076999999947,4.302291376246609e-06,6.261873968819026e-06,9.53160871245962e-06,2.282770912448635e-06,5.91921618806084e-06,4.075822696529599e-06,Unknown
0.22274999999999956,4.275648449282617e-06,6.291452098833239e-06,9.528297923736128e-06,2.3035362327620795e-06,5.919330896975646e-06,4.088042426845425e-06,Unknown
0.22326922999999965,4.231164431831725e-06,6.304024641743597e-06,9.533604958794371e-06,2.3277880238722705e-06,5.91984345795137e-06,4.102751337787106e-06,Unknown
0.22378845999999974,4.194480042796093e-06,6.312623516155685e-06,9.529756426738564e-06,2.339283459344266e-06,5.923830384903576e-06,4.11154443958476e-06,Unknown
0.22430768999999984,4.17793091661675e-06,6.338189584666751e-06,9.509804833682017e-06,2.341899488247606e-06,5.938976166299184e-06,4.111582585161873e-06,Unknown
0.22482691999999993,4.172513389572795e-06,6.386851050765161e-06,9.479649511191337e-06,2.343307697941602e-06,5.964378725239615e-06,4.125307368808174e-06,Unknown
0.22534615000000002,4.1687239184224485e-06,6.437986116977887e-06,9.45732554683059e-06,2.346113562239158e-06,5.990475333908395e-06,4.179542992843727e-06,Unknown
0.22586538000000012,4.164969140481229e-06,6.467510826169372e-06,9.45511166375645e-06,2.3556077263500468e-06,6.018582968127931e-06,4.2534853385650895e-06,Unknown
0.22638461999999926,4.166748678522542e-06,6.472192094679049e-06,9.463128161573113e-06,2.377624833222468e-06,6.050640755205887e-06,4.298659607833998e-06,Unknown
0.22690384999999935,4.18214737159432e-06,6.468641880596339e-06,9.46844710840002e-06,2.404774761593459e-06,6.071233031142653e-06,4.309452586960656e-06,Unknown
0.22742307999999944,4.207461936610825e-06,6.4684596195973295e-06,9.470952975108196e-06,2.4128758383267155e-06,6.07231196071974e-06,4.309571654088921e-06,Unknown
0.22794230999999954,4.220723269680272e-06,6.465184177228152e-06,9.475879726812586e-06,2.395597090156506e-06,6.0647136607496425e-06,4.305982434317651e-06,Unknown
0.22846153999999963,4.217813288385152e-06,6.454542701468571e-06,9.491589222569432e-06,2.386408166548628e-06,6.056527526849413e-06,4.2962259046165625e-06,Unknown
0.22898076999999972,4.214881247052393e-06,6.444916240925634e-06,9.522746983455547e-06,2.4048966653512837e-06,6.052581997127767e-06,4.274352837487098e-06,Unknown
0.22949999999999982,4.213531488716363e-06,6.444088882222562e-06,9.556759518327076e-06,2.4284799920767217e-06,6.05469038007069e-06,4.234549700525062e-06,Unknown
0.2300192299999999,4.216035341872406e-06,6.448953164071417e-06,9.56781513943727e-06,2.4419603957014946e-06,6.0554857492438e-06,4.1853637669192415e-06,Unknown
0.23053846,4.223206095002321e-06,6.451658864865514e-06,9.55138791091064e-06,2.452207651359005e-06,6.0550068010023895e-06,4.147908633874447e-06,Unknown
0.2310576900000001,4.228584572038469e-06,6.451774589672663e-06,9.533734733468583e-06,2.471512462221087e-06,6.055033322607356e-06,4.1349718852114505e-06,Unknown
0.23157692000000019,4.230130172491406e-06,6.451808244678882e-06,9.528827329305524e-06,2.5109775640386888e-06,6.053591174234229e-06,4.134696184533239e-06,Unknown
0.2320961499999985,4.221817561366336e-06,6.45230720929574e-06,9.527651987983071e-06,2.5588465275991075e-06,6.060852540169969e-06,4.132934641710665e-06,Unknown
0.2326153799999986,4.217404253945972e-06,6.455658254696154e-06,9.526784968263689e-06,2.5884539912308423e-06,6.067794241430351e-06,4.131327853451676e-06,Unknown
0.23313461999999952,4.233431254463054e-06,6.466492696892294e-06,9.52309612183528e-06,2.595948552175115e-06,6.056722744701439e-06,4.131062138822824e-06,Unknown
0.2336538499999996,4.248698682234504e-06,6.494566625875142e-06,9.505192390375886e-06,2.596240250919578e-06,6.05126554861356e-06,4.130544569592047e-06,Unknown
0.2341730799999997,4.253194376909169e-06,6.555588707619352e-06,9.481993651201196e-06,2.599456055252393e-06,6.064331103963515e-06,4.130189225017108e-06,Unknown
0.2346923099999998,4.25501334370468e-06,6.6539372935891966e-06,9.477581084967334e-06,2.6069027639857595e-06,6.074737561987604e-06,4.130215084948221e-06,Unknown
0.23521153999999989,4.242334625241965e-06,6.7636676250909365e-06,9.49299985260076e-06,2.6137412469042644e-06,6.074828878883622e-06,4.130782648899685e-06,Unknown
0.23573076999999998,4.218793480527992e-06,6.853360820493717e-06,9.514877362748388e-06,2.615940002897211e-06,6.070012600855379e-06,4.130022176028428e-06,Unknown
0.23625000000000007,4.207510562472802e-06,6.920987304714804e-06,9.53217160357294e-06,2.616594843326437e-06,6.073532188340137e-06,4.128831778428887e-06,Unknown
0.23676923000000016,4.209152285003757e-06,6.984358328795068e-06,9.53881183038236e-06,2.619208948971451e-06,6.090077096800579e-06,4.130067718416959e-06,Unknown
0.23728845999999848,4.214044767816022e-06,7.056461075874674e-06,9.537940322537568e-06,2.6276273070898017e-06,6.104120396795224e-06,4.132140019412394e-06,Unknown
0.23780768999999857,4.220864461745368e-06,7.136739573894436e-06,9.527467746705237e-06,2.6431172936789995e-06,6.108648005722914e-06,4.1325075404635765e-06,Unknown
0.23832691999999867,4.230983901166211e-06,7.219645737182219e-06,9.500245197626875e-06,2.654608925392236e-06,6.107688190455343e-06,4.131618206083212e-06,Unknown
0.23884614999999876,4.256058093977746e-06,7.304366204416721e-06,9.457999829382075e-06,2.6561039978196906e-06,6.105745184123626e-06,4.1315146816134886e-06,Unknown
0.23936537999999885,4.302661795357787e-06,7.390420531781944e-06,9.41041281569518e-06,2.6540833917282223e-06,6.105190429825287e-06,4.1327373139218365e-06,Unknown
0.23988461999999977,4.345496915789669e-06,7.469504607468718e-06,9.369439879130582e-06,2.652945036517226e-06,6.105169812784138e-06,4.137088556251515e-06,Unknown
0.24040384999999986,4.366917646683789e-06,7.529071539173029e-06,9.343977215287384e-06,2.652798227015384e-06,6.105597194187241e-06,4.142577610953386e-06,Unknown
0.24092307999999996,4.377836126160431e-06,7.561726165898218e-06,9.333993434339628e-06,2.652777795259845e-06,6.107356275775932e-06,4.1440876609628685e-06,Unknown
0.24144231000000005,4.391466869508036e-06,7.566904296209967e-06,9.331910623994488e-06,2.653099572081824e-06,6.104450023854771e-06,4.143745631315853e-06,Unknown
0.24196154000000014,4.409459279013202e-06,7.550459624784341e-06,9.331328418372424e-06,2.653546043950308e-06,6.086663732466142e-06,4.143555296638791e-06,Unknown
0.24248077000000023,4.41963917374976e-06,7.5282119200862045e-06,9.33212137183328e-06,2.64551776292476e-06,6.059110278388537e-06,4.144004042129745e-06,Unknown
0.24299999999999855,4.419566769246911e-06,7.519036346889304e-06,9.339216787984934e-06,2.6240965313377085e-06,6.026439077779679e-06,4.145334668769234e-06,Unknown
0.24351922999999864,4.419946442473892e-06,7.5277129839646495e-06,9.35329755215173e-06,2.6063484173619123e-06,5.986972589841584e-06,4.143022983494885e-06,Unknown
0.24403845999999874,4.42397092423286e-06,7.54550651439027e-06,9.36589546046929e-06,2.6049276689948684e-06,5.9637668299202965e-06,4.138151818534899e-06,Unknown
0.24455768999999883,4.428477346138882e-06,7.564946347304974e-06,9.371146180454049e-06,2.608757175266109e-06,5.969834728554846e-06,4.140915775845268e-06,Unknown
0.24507691999999892,4.430312887909074e-06,7.585252027342287e-06,9.371799834288387e-06,2.609734001567676e-06,5.980366021690831e-06,4.154620438295823e-06,Unknown
0.245596149999999,4.425243895947734e-06,7.608058403875053e-06,9.372340810196395e-06,2.6097932320403078e-06,5.981595542457266e-06,4.170865389062433e-06,Unknown
0.2461153799999991,4.414750224263035e-06,7.633000897020635e-06,9.376212092732416e-06,2.6104333946335563e-06,5.971001284563511e-06,4.1819018373751606e-06,Unknown
0.24663462000000003,4.411957897578426e-06,7.65801822042396e-06,9.383000950472804e-06,2.61376708930827e-06,5.939561290557683e-06,4.188639269313982e-06,Unknown
0.24715385000000012,4.414096262418035e-06,7.680868270074558e-06,9.38766260521804e-06,2.6155314499149818e-06,5.901502944991096e-06,4.195069966581323e-06,Unknown
0.2476730800000002,4.405788054658753e-06,7.699802370544267e-06,9.388554196420933e-06,2.615051856614324e-06,5.882269230625505e-06,4.19750890277078e-06,Unknown
0.24819230999999853,4.395303072458855e-06,7.714851201272207e-06,9.388265442285938e-06,2.620549984835863e-06,5.880656157555663e-06,4.198408803743344e-06,Unknown
0.24871153999999862,4.391312199659951e-06,7.728838492576342e-06,9.387998049761258e-06,2.6241837499528456e-06,5.885589078179866e-06,4.215185055163822e-06,Unknown
0.2492307699999987,4.398225265772772e-06,7.74818282782778e-06,9.38716377074874e-06,2.620454525527361e-06,5.896018243898292e-06,4.237341106276053e-06,Unknown
0.2497499999999988,4.415446278438443e-06,7.780271099917024e-06,9.383930853844678e-06,2.626591025879547e-06,5.909071996138506e-06,4.2420542713223725e-06,Unknown
0.2502692299999989,4.4193487412409934e-06,7.823700265731528e-06,9.376842366353049e-06,2.644405940152869e-06,5.922246201278209e-06,4.2409326174072335e-06,Unknown
0.250788459999999,4.413152372764802e-06,7.864869537752536e-06,9.368359830423473e-06,2.65471592717372e-06,5.935280347014663e-06,4.241154163222876e-06,Unknown
0.2513076899999991,4.413126143925211e-06,7.887709010210798e-06,9.36238720092228e-06,2.649087515814925e-06,5.942043877758936e-06,4.247747955926263e-06,Unknown
0.2518269199999992,4.408044761333064e-06,7.883139100843552e-06,9.358499605410235e-06,2.6327713155777826e-06,5.940788509933775e-06,4.260477313220336e-06,Unknown
0.25234614999999927,4.3974886156667485e-06,7.854200762603607e-06,9.35108196980788e-06,2.6179468709243124e-06,5.936430341424104e-06,4.2582921859032415e-06,Unknown
0.25286537999999936,4.389793699796853e-06,7.817100673829717e-06,9.331764544737225e-06,2.613880511422357e-06,5.92971348848002e-06,4.247796310817588e-06,Unknown
0.2533846199999985,4.384011954040473e-06,7.790799644848084e-06,9.3002558418918e-06,2.616334846059792e-06,5.915927838002888e-06,4.243644065638689e-06,Unknown
0.2539038499999986,4.381744381079709e-06,7.782245378829498e-06,9.270216699905302e-06,2.618061953298128e-06,5.893027994910933e-06,4.243610739909752e-06,Unknown
0.2544230799999987,4.38169286908955e-06,7.782381095613562e-06,9.251146246481391e-06,2.622671850652747e-06,5.866053746891105e-06,4.242466470818689e-06,Unknown
0.2549423099999988,4.380671045058724e-06,7.77669398262642e-06,9.239218600213898e-06,2.6305451506748868e-06,5.838865424893803e-06,4.24501426429154e-06,Unknown
0.2554615399999989,4.382563702542314e-06,7.764658171520481e-06,9.22739583264709e-06,2.633087094763633e-06,5.813805358099114e-06,4.261878045994522e-06,Unknown
0.25598076999999897,4.381333663663293e-06,7.756601443341672e-06,9.21139029367387e-06,2.6323415060262387e-06,5.796458442702816e-06,4.284444433968105e-06,Unknown
0.25649999999999906,4.366437497750662e-06,7.753739095386181e-06,9.19597216523428e-06,2.6324070144389835e-06,5.7880741341381884e-06,4.300264820921677e-06,Unknown
0.25701922999999915,4.3529576220129455e-06,7.751619824925917e-06,9.189591421267487e-06,2.630933930814205e-06,5.782140409141607e-06,4.310925351396653e-06,Unknown
0.25753845999999925,4.356108857619625e-06,7.745863370444124e-06,9.189393014109214e-06,2.6281583749830127e-06,5.777614236129042e-06,4.322329476648587e-06,Unknown
0.25805768999999934,4.359602768589438e-06,7.734136589334208e-06,9.18940566054855e-06,2.6277746672053587e-06,5.767611598881975e-06,4.3320299471919975e-06,Unknown
0.25857691999999943,4.348442988003997e-06,7.723062246782099e-06,9.192054423676763e-06,2.6349628603898686e-06,5.738763359796315e-06,4.334546531225752e-06,Unknown
0.2590961499999995,4.32455108646088e-06,7.718439766854259e-06,9.20056412052952e-06,2.6479779298639115e-06,5.712508197834074e-06,4.334496119389556e-06,Unknown
0.2596153799999996,4.293643319527252e-06,7.718172660129695e-06,9.214951130272842e-06,2.658145150845519e-06,5.707103061401099e-06,4.334018910364208e-06,Unknown
0.26013461999999876,4.270788323625595e-06,7.71659666591636e-06,9.234434909697856e-06,2.660575914048584e-06,5.709748663588026e-06,4.330886321678112e-06,Unknown
0.26065384999999885,4.261090830547222e-06,7.703477897446185e-06,9.25712596713912e-06,2.656616056696913e-06,5.732580724913656e-06,4.327420575870678e-06,Unknown
0.26117307999999895,4.255154027014504e-06,7.66998136080485e-06,9.281559965907222e-06,2.650630808265021e-06,5.768281830339949e-06,4.325479325340953e-06,Unknown
0.26169230999999904,4.2540905040649e-06,7.62220577749394e-06,9.30590595126846e-06,2.646547731072732e-06,5.777063476850747e-06,4.326664320578223e-06,Unknown
0.26221153999999913,4.252428827023051e-06,7.577813259612636e-06,9.319033679537242e-06,2.645806122709389e-06,5.770656607534114e-06,4.322819415485296e-06,Unknown
0.2627307699999992,4.237312783054619e-06,7.547480600417427e-06,9.296284899229453e-06,2.6473934919177704e-06,5.770551722405399e-06,4.3091825960646855e-06,Unknown
0.2632499999999993,4.215018049950869e-06,7.529816980797714e-06,9.221745711784306e-06,2.64905047120352e-06,5.770364760513324e-06,4.304326823029599e-06,Unknown
0.2637692299999994,4.201189528498385e-06,7.5206597485323805e-06,9.112472279403075e-06,2.649856359683399e-06,5.77506273230696e-06,4.311374567414327e-06,Unknown
0.2642884599999995,4.20226371932988e-06,7.518379159804192e-06,9.001743023303813e-06,2.650472234764698e-06,5.784619835356139e-06,4.312645468568758e-06,Unknown
0.2648076899999996,4.215313080116907e-06,7.521683203908404e-06,8.910229203235812e-06,2.6521785718417683e-06,5.802040240180664e-06,4.316495279769692e-06,Unknown
0.2653269199999997,4.235522123259534e-06,7.52832185080823e-06,8.844571263319911e-06,2.65685757946795e-06,5.835383569405281e-06,4.345903737077735e-06,Unknown
0.2658461499999998,4.255684925526443e-06,7.536950338503374e-06,8.804517202399944e-06,2.664633128092925e-06,5.866558482816963e-06,4.396078836379886e-06,Unknown
0.2663653799999999,4.263970403929305e-06,7.546295199440708e-06,8.783798666968952e-06,2.671829681254865e-06,5.8744847233479366e-06,4.441515557836156e-06,Unknown
0.266884619999999,4.263792688572548e-06,7.553924683899383e-06,8.77384013325252e-06,2.674089879214413e-06,5.859402914510046e-06,4.467423736598134e-06,Unknown
0.2674038499999991,4.268087136285938e-06,7.55671684756343e-06,8.767303826395521e-06,2.6733795557071867e-06,5.834163593427126e-06,4.476993539148646e-06,Unknown
0.2679230799999992,4.271287504895484e-06,7.55251514955032e-06,8.76010003846257e-06,2.6754961750094256e-06,5.821015860369036e-06,4.479401502278892e-06,Unknown
0.2684423099999993,4.26696627943344e-06,7.540276605332273e-06,8.751991986193204e-06,2.6792439014036383e-06,5.827530309765331e-06,4.480425388765799e-06,Unknown
0.2689615399999994,4.2596222296148925e-06,7.520460515558547e-06,8.742981654192455e-06,2.680597016705288e-06,5.832758859358131e-06,4.482762694494318e-06,Unknown
0.2694807699999995,4.245326278632655e-06,7.50100603418232e-06,8.73371380488254e-06,2.680860801295532e-06,5.831899067082804e-06,4.486966362915371e-06,Unknown
0.2699999999999996,4.219562358426096e-06,7.493696762423092e-06,8.727301426906143e-06,2.6794522571609382e-06,5.832549566800262e-06,4.4908889153749935e-06,Unknown
0.27051922999999967,4.182300876434183e-06,7.493566628459795e-06,8.725470953121795e-06,2.671549753594477e-06,5.832590841849922e-06,4.49274377931351e-06,Unknown
0.27103845999999976,4.127825417042298e-06,7.48221271897776e-06,8.725727493609897e-06,2.655745429024468e-06,5.834420674894144e-06,4.492938388023125e-06,Unknown
0.27155768999999985,4.082444623550399e-06,7.457066998058423e-06,8.725748861593515e-06,2.634998637671454e-06,5.829255565525707e-06,4.492450471947231e-06,Unknown
0.27207691999999994,4.074645465260504e-06,7.4273335685918895e-06,8.726063981656317e-06,2.614599471483666e-06,5.813681193107057e-06,4.490762736229597e-06,Unknown
0.27259615000000004,4.072086123843295e-06,7.392302387888807e-06,8.72681749610471e-06,2.6019201167188423e-06,5.790457339839333e-06,4.485877416830216e-06,Unknown
0.27311538000000013,4.0575336238156176e-06,7.348994328960151e-06,8.726972739698983e-06,2.5995994795823186e-06,5.7256284525311584e-06,4.477434056854463e-06,Unknown
0.2736346199999993,4.054352400183274e-06,7.301344515254363e-06,8.724953748174734e-06,2.600588244011759e-06,5.607131918638702e-06,4.473113068376616e-06,Unknown
0.27415384999999937,4.05751984435937e-06,7.254772118815593e-06,8.71701965260198e-06,2.6003397030230258e-06,5.487928231213528e-06,4.480314931049397e-06,Unknown
0.27467307999999946,4.0562226762236615e-06,7.217007462399501e-06,8.700856401100419e-06,2.6003251802069024e-06,5.406025385009278e-06,4.488806886693013e-06,Unknown
0.27519230999999955,4.043645777512658e-06,7.197094447072872e-06,8.683089459578117e-06,2.6003531319055244e-06,5.354249999836447e-06,4.484345216029724e-06,Unknown
0.27571153999999964,3.995800379757194e-06,7.19495843484819e-06,8.67278352299266e-06,2.6016881306213304e-06,5.311338355237632e-06,4.474397964945687e-06,Unknown
0.27623076999999974,3.931739330331607e-06,7.200964810012252e-06,8.669442437398607e-06,2.599518062160303e-06,5.250026794914563e-06,4.47996089828543e-06,Unknown
0.27674999999999983,3.898071389307465e-06,7.209143173274692e-06,8.667302215296557e-06,2.584132285909579e-06,5.171019112238963e-06,4.502229961025184e-06,Unknown
0.2772692299999999,3.891287390776427e-06,7.218409363045506e-06,8.659675617942645e-06,2.5600316054452363e-06,5.12068649637307e-06,4.50861956180945e-06,Unknown
0.27778846,3.888411765679228e-06,7.22443513618396e-06,8.641591374226863e-06,2.541211468028139e-06,5.1213793749238696e-06,4.471527741499816e-06,Unknown
0.2783076900000001,3.883407588451208e-06,7.223465870391166e-06,8.620283897970794e-06,2.5338355767163104e-06,5.140589372989507e-06,4.448852671632503e-06,Unknown
0.2788269200000002,3.88030604485986e-06,7.218143977098134e-06,8.605589664829968e-06,2.5309970220906626e-06,5.150687803680237e-06,4.499204317826325e-06,Unknown
0.2793461499999985,3.887444513352619e-06,7.213673219132392e-06,8.596077047515425e-06,2.5322030337640347e-06,5.145789639037709e-06,4.535209261463617e-06,Unknown
0.2798653799999986,3.898644200161929e-06,7.21135790793721e-06,8.587227710590146e-06,2.544314382809071e-06,5.151276046274837e-06,4.536303068317823e-06,Unknown
0.28038461999999953,3.8969973261025655e-06,7.20913905427091e-06,8.577725852037825e-06,2.553791540585413e-06,5.205271100954212e-06,4.607775978613189e-06,Unknown
0.2809038499999996,3.884412968495541e-06,7.204908682486053e-06,8.567370695582333e-06,2.553359722152782e-06,5.272654177794822e-06,4.6952543548145255e-06,Unknown
0.2814230799999997,3.871841173654611e-06,7.196085322625187e-06,8.557943956417555e-06,2.5525920778380462e-06,5.298688293505975e-06,4.703637458713994e-06,Unknown
0.2819423099999998,3.861470877349295e-06,7.182593257628057e-06,8.55253766308151e-06,2.5502851687709537e-06,5.298969503931416e-06,4.6934327216141584e-06,Unknown
0.2824615399999999,3.859381882033932e-06,7.169465347753217e-06,8.551922884677077e-06,2.552120239057744e-06,5.308764904947853e-06,4.706390587819203e-06,Unknown
0.28298077,3.861135693566171e-06,7.160092943748253e-06,8.555182080436615e-06,2.5620208983499288e-06,5.345019802113848e-06,4.708555691763391e-06,Unknown
0.2835000000000001,3.862153301365494e-06,7.152476251188891e-06,8.55699799339083e-06,2.5670977128167614e-06,5.396157061826403e-06,4.706350163495226e-06,Unknown
0.2840192300000002,3.877877160803122e-06,7.143190802081766e-06,8.552212232306194e-06,2.5662579879791337e-06,5.427010690068467e-06,4.722749592630852e-06,Unknown
0.2845384599999985,3.8975334323624925e-06,7.132023004964617e-06,8.545718606897693e-06,2.565632301893218e-06,5.434581799482773e-06,4.743160039481812e-06,Unknown
0.2850576899999986,3.903945840619668e-06,7.1240712292623446e-06,8.542749865938554e-06,2.564398629565793e-06,5.427704252556166e-06,4.753877889206313e-06,Unknown
0.2855769199999987,3.902116751961913e-06,7.121808436255391e-06,8.541428542343223e-06,2.5634785905036506e-06,5.398031075925416e-06,4.763572204996745e-06,Unknown
0.2860961499999988,3.872012642790278e-06,7.121632587939915e-06,8.540454890907302e-06,2.564044338263463e-06,5.374337139966592e-06,4.769785037442313e-06,Unknown
0.28661537999999886,3.819955024597091e-06,7.121983558483734e-06,8.540495200092555e-06,2.5638879349476484e-06,5.383864484801227e-06,4.758887371249739e-06,Unknown
0.2871346199999998,3.797634949036635e-06,7.124451388715646e-06,8.545678359624606e-06,2.561041605433444e-06,5.397112060445682e-06,4.749533217292991e-06,Unknown
0.2876538499999999,3.798397075317305e-06,7.131936161296892e-06,8.564216263600479e-06,2.554979034496332e-06,5.398024704968845e-06,4.777820078850348e-06,Unknown
0.28817307999999997,3.797254968296685e-06,7.147304686283688e-06,8.591972810419753e-06,2.548886637231428e-06,5.397027036994288e-06,4.826472514169993e-06,Unknown
0.28869231000000006,3.811152639417002e-06,7.168015554591432e-06,8.611361789347922e-06,2.5478585702333737e-06,5.389958246283931e-06,4.8530195975169855e-06,Unknown
0.28921154000000016,3.824356063521979e-06,7.182304714459373e-06,8.616796938559664e-06,2.5489902206586564e-06,5.37885208051503e-06,4.853437930393112e-06,Unknown
0.28973077000000025,3.820060277989852e-06,7.17727552830397e-06,8.617573265567534e-06,2.546760149461472e-06,5.373972738123402e-06,4.839697744452202e-06,Unknown
0.29024999999999856,3.823340441481914e-06,7.155891476241443e-06,8.62457100060142e-06,2.545534538820893e-06,5.372508928295216e-06,4.821420178739623e-06,Unknown
0.29076922999999866,3.821545986598426e-06,7.137156566234397e-06,8.64425099741776e-06,2.5455952504129554e-06,5.370486013142728e-06,4.809404560626867e-06,Unknown
0.29128845999999875,3.7969741725251593e-06,7.13165017602329e-06,8.668256436987527e-06,2.5359044837337897e-06,5.368881641412029e-06,4.806289938531702e-06,Unknown
0.29180768999999884,3.776944802151872e-06,7.131732528542992e-06,8.681853844126613e-06,2.515793775050543e-06,5.37412573744455e-06,4.807209637642953e-06,Unknown
0.29232691999999894,3.773546677855034e-06,7.130875389756932e-06,8.683942539573963e-06,2.4967722019979253e-06,5.388174112538401e-06,4.80851816216087e-06,Unknown
0.29284614999999903,3.772097337041005e-06,7.130345023142558e-06,8.68156773382827e-06,2.4849056577364924e-06,5.390483290074699e-06,4.809615916605225e-06,Unknown
0.2933653799999991,3.761539493524345e-06,7.1303902903420655e-06,8.678494591109261e-06,2.4797275378232987e-06,5.377684490545833e-06,4.8097851341958905e-06,Unknown
0.29388462000000004,3.749396841518523e-06,7.13072909180099e-06,8.678541876415657e-06,2.480856595721312e-06,5.37173984679387e-06,4.8061626066106726e-06,Unknown
0.29440385000000013,3.746478275748568e-06,7.133463448143704e-06,8.687817076865922e-06,2.487578833807184e-06,5.377588336943011e-06,4.7979032072926166e-06,Unknown
0.2949230800000002,3.7505633001432527e-06,7.134023770507534e-06,8.706598438700827e-06,2.4964773596717203e-06,5.398184001897977e-06,4.791573605238431e-06,Unknown
0.29544230999999854,3.7582075227479096e-06,7.120216500144764e-06,8.725175730185722e-06,2.503674668474947e-06,5.427275203913707e-06,4.791248320726851e-06,Unknown
0.29596153999999864,3.763079508447953e-06,7.09262585455055e-06,8.732636525640024e-06,2.508930823373836e-06,5.441747819351543e-06,4.79075183203965e-06,Unknown
0.29648076999999873,3.7607268254906206e-06,7.064635100379599e-06,8.729360040110036e-06,2.513426223516357e-06,5.442518100875713e-06,4.787971610418801e-06,Unknown
0.2969999999999988,3.7602858369972183e-06,7.041827745140525e-06,8.727264652543568e-06,2.51606470907405e-06,5.442394724319964e-06,4.786945999374647e-06,Unknown
0.2975192299999989,3.759740190964352e-06,7.023105232115586e-06,8.733780363224666e-06,2.516587916735087e-06,5.445797014025468e-06,4.7871366918386775e-06,Unknown
0.298038459999999,3.7421163497413127e-06,7.011206809160965e-06,8.743194971269118e-06,2.516602395756011e-06,5.460798547011656e-06,4.787978862822508e-06,Unknown
0.2985576899999991,3.716003265587921e-06,7.008861112861436e-06,8.748696510345137e-06,2.516703920415548e-06,5.46337188119905e-06,4.791332372205293e-06,Unknown
0.2990769199999992,3.7056742729204536e-06,7.009689170851373e-06,8.751474457573095e-06,2.517072035479696e-06,5.427499623041424e-06,4.799358888107393e-06,Unknown
0.2995961499999993,3.706712155175664e-06,7.0086940516053465e-06,8.753683007516874e-06,2.517574410891107e-06,5.400127357241644e-06,4.815080771356524e-06,Unknown
0.3001153799999994,3.706925911721448e-06,7.008858515676874e-06,8.757200684488195e-06,2.517631112422499e-06,5.406055725305658e-06,4.836681566630658e-06,Unknown
0.3006346199999985,3.7202224389176423e-06,7.00900218891835e-06,8.761976138447933e-06,2.516634278877153e-06,5.410106207300967e-06,4.854663272911125e-06,Unknown
0.3011538499999986,3.747697725078821e-06,7.006945127128286e-06,8.761335831219282e-06,2.513478712090447e-06,5.410116223607766e-06,4.860836389340439e-06,Unknown
0.3016730799999987,3.766991912533812e-06,7.004415222252883e-06,8.762945532750422e-06,2.5097917633753923e-06,5.405163882353086e-06,4.860497979890634e-06,Unknown
0.3021923099999988,3.770204019292537e-06,7.002710866791733e-06,8.788642966687172e-06,2.5083677539514973e-06,5.390076552302061e-06,4.862372457500456e-06,Unknown
0.3027115399999989,3.761274419764105e-06,7.003171715934108e-06,8.833292104452839e-06,2.506756315012868e-06,5.386558805946996e-06,4.863996767894392e-06,Unknown
0.303230769999999,3.7493945383837774e-06,7.0078329132351816e-06,8.867043205368292e-06,2.5009041107689627e-06,5.386123438262265e-06,4.861849190549262e-06,Unknown
0.3037499999999991,3.744453759395087e-06,7.016264375227461e-06,8.867148277330018e-06,2.490888787199454e-06,5.3735655760899695e-06,4.857104475273343e-06,Unknown
0.30426922999999917,3.7446196684823055e-06,7.025563649030175e-06,8.821940787907636e-06,2.4794795200692525e-06,5.3675515775184215e-06,4.854988558775656e-06,Unknown
0.30478845999999926,3.742388555522724e-06,7.034328434878359e-06,8.736848071194378e-06,2.4695880770621577e-06,5.368350785441824e-06,4.87262045715103e-06,Unknown
0.30530768999999935,3.7330214325532712e-06,7.042067345230686e-06,8.635706780028425e-06,2.464268591029604e-06,5.361674139343294e-06,4.929865792076042e-06,Unknown
0.30582691999999945,3.721590656819783e-06,7.044941612132266e-06,8.537028535562466e-06,2.4655919139664336e-06,5.355518276118655e-06,5.017449242820325e-06,Unknown
0.30634614999999954,3.714990203502685e-06,7.03824999414527e-06,8.44052846572713e-06,2.472611984113643e-06,5.355880281965987e-06,5.099423378004685e-06,Unknown
0.30686537999999963,3.712081084939537e-06,7.025454562614741e-06,8.342980862540187e-06,2.481564061962527e-06,5.356914252674027e-06,5.153854316335372e-06,Unknown
0.3073846199999988,3.707120925997496e-06,7.01546747661787e-06,8.262921516515845e-06,2.487343258786837e-06,5.356750190589194e-06,5.181278948144712e-06,Unknown
0.30790384999999887,3.6944406613973344e-06,7.011443975356114e-06,8.234188103705226e-06,2.488244555993941e-06,5.357085399467998e-06,5.186301014715149e-06,Unknown
0.30842307999999896,3.682725531536532e-06,7.010893535989055e-06,8.251824218064424e-06,2.487286989303672e-06,5.3622817700887166e-06,5.192872819167037e-06,Unknown
0.30894230999999905,3.677343647800399e-06,7.01113648301878e-06,8.241635504456325e-06,2.486151374977392e-06,5.367635951223385e-06,5.269323874277914e-06,Unknown
0.30946153999999915,3.673534281669565e-06,7.010039740963047e-06,8.115092149280939e-06,2.4854348573141176e-06,5.367323459938523e-06,5.448508626565679e-06,Unknown
0.30998076999999924,3.67267361244185e-06,7.004615827464117e-06,7.851262609011742e-06,2.4853826744906625e-06,5.36535803727244e-06,5.651207706678407e-06,Unknown
0.31049999999999933,3.672695523553727e-06,6.992234402897182e-06,7.522846535523687e-06,2.485389145137044e-06,5.355839882500958e-06,5.786781483292933e-06,Unknown
0.3110192299999994,3.672982643556361e-06,6.974024368548832e-06,7.241540383277057e-06,2.484938519564694e-06,5.3394244861984405e-06,5.839515191811984e-06,Unknown
0.3115384599999995,3.6691612076547018e-06,6.956160682045222e-06,7.065427960664817e-06,2.48185627793287e-06,5.334365244632695e-06,5.840834428249939e-06,Unknown
0.3120576899999996,3.660592959195597e-06,6.946900569090836e-06,6.971965767487871e-06,2.4780350915319517e-06,5.33492278939474e-06,5.822667652031629e-06,Unknown
0.3125769199999997,3.655562453946984e-06,6.949610321611396e-06,6.912563705866999e-06,2.477333202020444e-06,5.331904643365334e-06,5.791237271064936e-06,Unknown
0.3130961499999998,3.6529357147845727e-06,6.961526790720605e-06,6.8511114630771496e-06,2.4769941667713925e-06,5.339731994463729e-06,5.73139629592981e-06,Unknown
0.3136153799999999,3.6486225845284137e-06,6.976527049359816e-06,6.771875309367646e-06,2.4786943242679032e-06,5.340886400252231e-06,5.641405198795266e-06,Unknown
0.31413461999999903,3.6321274378986857e-06,6.978835722197482e-06,6.6839549121717e-06,2.495578297445725e-06,5.318627598025281e-06,5.568422902410526e-06,Unknown
0.3146538499999991,3.607871164740125e-06,6.954527129488462e-06,6.608417749450833e-06,2.527613571011485e-06,5.300709544768888e-06,5.551500154447216e-06,Unknown
0.3151730799999992,3.6191127790048654e-06,6.913913095517433e-06,6.558777086184324e-06,2.550475059038973e-06,5.288652418121105e-06,5.561713332746163e-06,Unknown
0.3156923099999993,3.6735932535456873e-06,6.879814498463769e-06,6.531431340200842e-06,2.553814109529636e-06,5.258032507124403e-06,5.569826132722148e-06,Unknown
0.3162115399999994,3.717517025186844e-06,6.863532313360651e-06,6.514372044624775e-06,2.553492561438108e-06,5.204007717153776e-06,5.574444141381763e-06,Unknown
0.3167307699999995,3.7270144883074057e-06,6.861225749049312e-06,6.502499420899702e-06,2.554199806598486e-06,5.135808799651414e-06,5.572987469817435e-06,Unknown
0.3172499999999996,3.719071850568625e-06,6.865692419493865e-06,6.495190880548126e-06,2.553313987449354e-06,5.078543127803393e-06,5.572639910257885e-06,Unknown
0.3177692299999997,3.706736010432899e-06,6.871393367468846e-06,6.491736246117888e-06,2.5562711832046294e-06,5.053896090139821e-06,5.576176596895031e-06,Unknown
0.3182884599999998,3.701757598328784e-06,6.875298950999888e-06,6.4911988026849095e-06,2.558393831363804e-06,5.052277335185781e-06,5.56870177026089e-06,Unknown
0.31880768999999987,3.701923274325597e-06,6.877432318136794e-06,6.491237844696314e-06,2.555130487800448e-06,5.055097466662013e-06,5.546470533854833e-06,Unknown
0.31932691999999996,3.7012965709574434e-06,6.877593384393995e-06,6.491469576422206e-06,2.5540886499137262e-06,5.056746437886164e-06,5.5239264341221054e-06,Unknown
0.31984615000000005,3.700621642537462e-06,6.879116521678191e-06,6.4921219422753e-06,2.561183688022832e-06,5.054981742019892e-06,5.513013626827333e-06,Unknown
0.32036538000000014,3.691151288352217e-06,6.885833869708173e-06,6.490769699591133e-06,2.573342664663404e-06,5.050927681017851e-06,5.5127221066062885e-06,Unknown
0.3208846199999993,3.678912625004493e-06,6.89481839653836e-06,6.485629847037946e-06,2.5821234408324484e-06,5.060663277773068e-06,5.514213650460389e-06,Unknown
0.3214038499999994,3.675219903655311e-06,6.900578578717937e-06,6.476388702147314e-06,2.579471900551008e-06,5.085957687233678e-06,5.512761936412246e-06,Unknown
0.3219230799999995,3.6753696905928552e-06,6.901823959390135e-06,6.464064122910829e-06,2.565463033498801e-06,5.10700289899875e-06,5.509759260800632e-06,Unknown
0.32244230999999957,3.679556589025233e-06,6.90121261106928e-06,6.454827872514792e-06,2.553290737228925e-06,5.118757755665171e-06,5.506598098606004e-06,Unknown
0.32296153999999966,3.687505701507607e-06,6.900109876267952e-06,6.451846537359448e-06,2.552957117701321e-06,5.131612655944091e-06,5.509035391010681e-06,Unknown
0.32348076999999975,3.6883195642309767e-06,6.897951204693872e-06,6.448088046158003e-06,2.553292118679524e-06,5.156605358113088e-06,5.523540701236068e-06,Unknown
0.32399999999999984,3.6847603397445454e-06,6.896244391600783e-06,6.439690773444982e-06,2.5466109000253035e-06,5.187170620543654e-06,5.542499762398278e-06,Unknown
0.32451922999999994,3.6904790153584943e-06,6.89625043368213e-06,6.42874030319788e-06,2.5445573542335806e-06,5.201396800169703e-06,5.55283687230204e-06,Unknown
0.32503846000000003,3.694478563097464e-06,6.896418999558402e-06,6.417144548117353e-06,2.542549515160024e-06,5.191626983495932e-06,5.554169484559549e-06,Unknown
0.3255576900000001,3.6796764907211937e-06,6.896590144650293e-06,6.408314133490226e-06,2.525020223189188e-06,5.1628224236771855e-06,5.5550166607273074e-06,Unknown
0.3260769200000002,3.6441698643134023e-06,6.897909812759334e-06,6.403676152209933e-06,2.5088449477767497e-06,5.131664871136114e-06,5.561277904031783e-06,Unknown
0.32659614999999853,3.5953488988430017e-06,6.897955813723577e-06,6.4013004702228444e-06,2.5102025786611816e-06,5.123668370833083e-06,5.571547441552593e-06,Unknown
0.3271153799999986,3.562259716561142e-06,6.8947708707064255e-06,6.400810972521325e-06,2.5122007536447644e-06,5.135670564726167e-06,5.576047152633461e-06,Unknown
0.32763461999999954,3.5576862880757032e-06,6.8907266172380944e-06,6.404129580442991e-06,2.509309106628382e-06,5.138659903822524e-06,5.567415311171323e-06,Unknown
0.32815384999999964,3.559142623750817e-06,6.885750049393371e-06,6.408399426678269e-06,2.5086418384059426e-06,5.102014064483278e-06,5.55877392219034e-06,Unknown
0.32867307999999973,3.5584341237129352e-06,6.8786196298344685e-06,6.40727918754259e-06,2.508841675800315e-06,5.020023833551964e-06,5.5679349366893605e-06,Unknown
0.3291923099999998,3.55971329519821e-06,6.8722321736334855e-06,6.400806838216088e-06,2.512122813435452e-06,4.944925383314794e-06,5.585629874824996e-06,Unknown
0.3297115399999999,3.560538908202063e-06,6.869576687077881e-06,6.389252326105584e-06,2.5184270125361245e-06,4.920058882146712e-06,5.597393758446167e-06,Unknown
0.33023077,3.560367876165986e-06,6.869492958623286e-06,6.358406480748095e-06,2.5227221524649545e-06,4.920435083201197e-06,5.611722891946084e-06,Unknown
0.3307500000000001,3.558407016069547e-06,6.870084576160733e-06,6.27526835293993e-06,2.5245679812203604e-06,4.921241781164307e-06,5.67502219570554e-06,Unknown
0.3312692300000002,3.556566705930155e-06,6.8714359532676e-06,6.1127621708860565e-06,2.525970985250069e-06,4.918624809481458e-06,5.899862218724442e-06,Unknown
0.3317884599999985,3.560170890145361e-06,6.871918450798631e-06,5.894879143359401e-06,2.526415065874327e-06,4.898673714304838e-06,6.29180320927137e-06,Unknown
0.3323076899999986,3.564569375675805e-06,6.867670668818578e-06,5.686971491757042e-06,2.5245349679412544e-06,4.866446188287548e-06,6.612490295528349e-06,Unknown
0.3328269199999987,3.562352552686192e-06,6.853757478235807e-06,5.538705058785748e-06,2.524580675586578e-06,4.84774537659335e-06,6.714163305392803e-06,Unknown
0.3333461499999988,3.5569452097876256e-06,6.827137320255917e-06,5.459281587442029e-06,2.5348331542437376e-06,4.845173162196328e-06,6.71384744602172e-06,Unknown
0.3338653799999989,3.5549343638204737e-06,6.79494732982309e-06,5.429080348619876e-06,2.550588714291921e-06,4.850301938549643e-06,6.7157448014369785e-06,Unknown
0.3343846199999998,3.557817172363021e-06,6.7717207169004994e-06,5.422297942216345e-06,2.5564100780185133e-06,4.864209461811084e-06,6.716207744156763e-06,Unknown
0.3349038499999999,3.567170718219549e-06,6.763098663274269e-06,5.422175156272249e-06,2.556701861615907e-06,4.8732329899046485e-06,6.717572770099987e-06,Unknown
0.33542308,3.5794317754543643e-06,6.762678902669329e-06,5.420687218488332e-06,2.566828539175643e-06,4.870683264513271e-06,6.716465380831925e-06,Unknown
0.3359423100000001,3.583319625732381e-06,6.764498074938323e-06,5.412626553889486e-06,2.579842539395593e-06,4.870461287806091e-06,6.708717293705041e-06,Unknown
0.33646154000000017,3.580592506748309e-06,6.768871408503418e-06,5.396633619323984e-06,2.58485540615856e-06,4.870616819605176e-06,6.708934472341633e-06,Unknown
0.3369807699999985,3.5807147445548536e-06,6.779458509374204e-06,5.381107253528149e-06,2.5854246591014687e-06,4.8753922841104e-06,6.7216629086889055e-06,Unknown
0.3374999999999986,3.57920921738754e-06,6.794312183868921e-06,5.372712249972342e-06,2.5857270477146557e-06,4.887869633298637e-06,6.7371835460327885e-06,Unknown
0.33801922999999867,3.5727144923807787e-06,6.800051334741816e-06,5.368117205871443e-06,2.5881875051419e-06,4.88895845648309e-06,6.749307546817856e-06,Unknown
0.33853845999999876,3.5673167198690968e-06,6.790683211946438e-06,5.360775333570872e-06,2.5929415428396497e-06,4.900236874827077e-06,6.759813217272375e-06,Unknown
0.33905768999999886,3.563953394422655e-06,6.780402504280517e-06,5.338058047991721e-06,2.5960946908887786e-06,4.947221543832084e-06,6.778177705559942e-06,Unknown
0.33957691999999895,3.5638108827850983e-06,6.7781968049848965e-06,5.295006987128325e-06,2.5971204391038723e-06,4.99341876617673e-06,6.819231991560146e-06,Unknown
0.34009614999999904,3.56720461921748e-06,6.778479655766738e-06,5.24337968128722e-06,2.596832394287507e-06,5.011901368393082e-06,6.883581877614372e-06,Unknown
0.34061537999999913,3.5694376337587176e-06,6.779282736219853e-06,5.193739792014142e-06,2.5959217434847317e-06,5.01405058586439e-06,6.9502560170027065e-06,Unknown
0.34113462000000006,3.5694048740068027e-06,6.778053495086256e-06,5.141967266567779e-06,2.5978944682260786e-06,5.013639774981638e-06,6.997714106360835e-06,Unknown
0.34165385000000015,3.567447064661005e-06,6.771701551824665e-06,5.08394725938547e-06,2.5989974938713336e-06,5.025547064519735e-06,7.019237553644888e-06,Unknown
0.34217308000000024,3.570397326761686e-06,6.771833759039514e-06,5.052371198067288e-06,2.5970698011183467e-06,5.0481965768877164e-06,7.0229029192407744e-06,Unknown
0.34269230999999856,3.578223958206733e-06,6.789116982583174e-06,5.0838051303396815e-06,2.596553478341413e-06,5.061328731949665e-06,7.022805669925991e-06,Unknown
0.34321153999999865,3.576723192956074e-06,6.807904439384534e-06,5.146944154341036e-06,2.596590815178395e-06,5.065380458556991e-06,7.023478605930459e-06,Unknown
0.34373076999999874,3.5755298215800774e-06,6.806233804800424e-06,5.18327568201586e-06,2.598036778881639e-06,5.0762681346742245e-06,7.011319947069908e-06,Unknown
0.34424999999999883,3.5892998698330183e-06,6.791999831707123e-06,5.1840297772591774e-06,2.5936398799720626e-06,5.104439693768837e-06,6.977277000300241e-06,Unknown
0.3447692299999989,3.596400207380964e-06,6.789336284105402e-06,5.1804623452157815e-06,2.5766285217833717e-06,5.1549343030411e-06,6.941674227640096e-06,Unknown
0.345288459999999,3.584734487111638e-06,6.800450863608214e-06,5.194562812964442e-06,2.561978526806772e-06,5.213020253499111e-06,6.92768160648691e-06,Unknown
0.3458076899999991,3.5775196743558666e-06,6.811859291777557e-06,5.215772842123728e-06,2.5581764240401662e-06,5.262423553486137e-06,6.93199686394207e-06,Unknown
0.3463269199999992,3.577295058639907e-06,6.81415275489164e-06,5.221018203809888e-06,2.5575436880143248e-06,5.304021810536346e-06,6.9433929448469424e-06,Unknown
0.3468461499999993,3.5708015578565204e-06,6.798509823970524e-06,5.2065570508243936e-06,2.556929771025901e-06,5.3381680068293615e-06,6.95853682794491e-06,Unknown
0.3473653799999994,3.57550486629224e-06,6.768377418664742e-06,5.186985395572938e-06,2.5511230208204858e-06,5.36184609099544e-06,6.9741771498949006e-06,Unknown
0.34788461999999853,3.591443254035761e-06,6.739464112709232e-06,5.17273599757745e-06,2.5347952558312863e-06,5.37257331055573e-06,6.985172152606139e-06,Unknown
0.3484038499999986,3.5973555898911217e-06,6.7163676297155565e-06,5.163147329299216e-06,2.521521119672918e-06,5.374629285186822e-06,6.9915303548831255e-06,Unknown
0.3489230799999987,3.597563818934569e-06,6.690899215188398e-06,5.158273721138515e-06,2.524839352324175e-06,5.370218158626535e-06,6.999758702162769e-06,Unknown
0.3494423099999988,3.599090451036689e-06,6.652525263269563e-06,5.1608905667719146e-06,2.5335588169219203e-06,5.3540427447083245e-06,7.013601439787333e-06,Unknown
0.3499615399999989,3.614675977185228e-06,6.600213579795013e-06,5.167005159104373e-06,2.5336858899953767e-06,5.326993608116782e-06,7.019864495387285e-06,Unknown
0.350480769999999,3.633783178357477e-06,6.549270075706519e-06,5.164343522390679e-06,2.5352803571336744e-06,5.294334777358159e-06,6.995645023639422e-06,Stood
0.3509999999999991,3.6344897805186343e-06,6.519533276355069e-06,5.146368262307244e-06,2.5491037786650456e-06,5.257933195638361e-06,6.947291988410539e-06,Stood
0.3515192299999992,3.643794969405223e-06,6.5191128486394125e-06,5.125444299486964e-06,2.553590199821142e-06,5.2200044545741616e-06,6.91722463786483e-06,Stood
0.3520384599999993,3.64279832726792e-06,6.542205254369363e-06,5.11375796828583e-06,2.5346017453428837e-06,5.1958936876013326e-06,6.933637505743085e-06,Stood
0.35255768999999937,3.6122731643368106e-06,6.576330344872412e-06,5.109434675635243e-06,2.5184290474051942e-06,5.1903010091874855e-06,6.981845328773736e-06,Stood
0.35307691999999946,3.624477686486918e-06,6.606234509484749e-06,5.108109786881788e-06,2.517298183465171e-06,5.192079690142379e-06,7.027129593427853e-06,Stood
0.35359614999999955,3.667022251618805e-06,6.620809157859262e-06,5.096805994285564e-06,2.5147513918859143e-06,5.2064182859152335e-06,7.049746671332659e-06,Stood
0.35411537999999965,3.675386089571768e-06,6.622729200514211e-06,5.059635818361922e-06,2.5131384962619987e-06,5.226541434857111e-06,7.055820637521361e-06,Stood
0.3546346199999988,3.679245777189058e-06,6.619431411754269e-06,4.997584823428571e-06,2.518587252261416e-06,5.2330212340933255e-06,7.0570754943035935e-06,Stood
0.3551538499999989,3.689543538215815e-06,6.614534886411271e-06,4.9217591269719705e-06,2.519245424586921e-06,5.232156310223902e-06,7.057393673825382e-06,Stood
0.355673079999999,3.682452496928406e-06,6.611986699617578e-06,4.844550866625506e-06,2.5111465728147736e-06,5.236483951533265e-06,7.05832090612221e-06,Stood
0.35619230999999907,3.6727797470617327e-06,6.612535529616632e-06,4.784525339537341e-06,2.490955542765657e-06,5.265787113018315e-06,7.061222385506472e-06,Stood
0.35671153999999916,3.670757211787579e-06,6.616027941504832e-06,4.758130303914763e-06,2.446855253375906e-06,5.330879571108979e-06,7.066343991097862e-06,Stood
0.35723076999999925,3.6700637606970544e-06,6.62369505597932e-06,4.758053214651243e-06,2.3873483610574373e-06,5.390336793024624e-06,7.0705624593989695e-06,Stood
0.35774999999999935,3.669282452882619e-06,6.633448632238069e-06,4.762664564853117e-06,2.33801148134844e-06,5.417342262266913e-06,7.070261535310568e-06,Stood
0.35826922999999944,3.664325243747324e-06,6.639494096644642e-06,4.76571026582839e-06,2.310068892883122e-06,5.430850942500215e-06,7.069039009367979e-06,Stood
0.35878845999999953,3.656234165805764e-06,6.629584477304512e-06,4.770149647701741e-06,2.295880590319852e-06,5.433856928224525e-06,7.06928031639199e-06,Stood
0.3593076899999996,3.653155225079871e-06,6.584020816058516e-06,4.771055589168802e-06,2.285727047112729e-06,5.428442540827163e-06,7.07004375801937e-06,Stood
0.3598269199999997,3.654582300488677e-06,6.492910987411146e-06,4.762536148708669e-06,2.276688788189038e-06,5.430779664480645e-06,7.084399326626026e-06,Stood
0.3603461499999998,3.65491637695098e-06,6.378756042245911e-06,4.739932586042624e-06,2.2744061350334007e-06,5.4361951592605664e-06,7.112958376512275e-06,Stood
0.3608653799999999,3.655084843958241e-06,6.273584506155948e-06,4.7158932967694814e-06,2.2820994547712414e-06,5.435262677668878e-06,7.122847727988724e-06,Stood
0.36138461999999905,3.665899528110412e-06,6.181172735328171e-06,4.732807180711261e-06,2.291146445226516e-06,5.425197181348927e-06,7.127173491049152e-06,Stood
0.36190384999999914,3.689313870832745e-06,6.088689444353249e-06,4.811678052564024e-06,2.294226845134264e-06,5.406255807370283e-06,7.169574501659312e-06,Stood
0.36242307999999923,3.702743178633215e-06,5.987746180697265e-06,4.918916997636992e-06,2.2881279482932685e-06,5.391745242347941e-06,7.215332999288842e-06,Stood
0.3629423099999993,3.695489776500493e-06,5.880187415717202e-06,5.000744785616319e-06,2.2739584002225723e-06,5.387407402769033e-06,7.225055527680761e-06,Stood
0.3634615399999994,3.6788186478700822e-06,5.772235426708548e-06,5.032585857544486e-06,2.2632178152801465e-06,5.38670380936421e-06,7.225287533503238e-06,Stood
0.3639807699999995,3.642571876921944e-06,5.662760891550971e-06,5.033562308292189e-06,2.2621747547550657e-06,5.386493996945148e-06,7.234567452742846e-06,Stood
0.3644999999999996,3.5779827527003976e-06,5.549952210399016e-06,5.029261699832933e-06,2.265742361373128e-06,5.387397940073205e-06,7.24307477786631e-06,Stood
0.3650192299999997,3.521239661293403e-06,5.44062353415352e-06,5.027490394554954e-06,2.2709100825023423e-06,5.397568167349222e-06,7.245784060056293e-06,Stood
0.3655384599999998,3.495198275046665e-06,5.345163889352409e-06,5.028433587952864e-06,2.2782725843479924e-06,5.427076771482992e-06,7.247741413640556e-06,Stood
0.3660576899999999,3.4894097345264064e-06,5.271042000527978e-06,5.033704743292913e-06,2.2856551725425814e-06,5.455803360514926e-06,7.252111633515587e-06,Stood
0.36657692,3.498332578904933e-06,5.223870562995066e-06,5.043345577760207e-06,2.2880250443181275e-06,5.462353244984547e-06,7.256543756375718e-06,Stood
0.36709615000000007,3.5085882927879863e-06,5.205886221885091e-06,5.052889935044022e-06,2.2865866798736814e-06,5.462471172835396e-06,7.260484793472511e-06,Stood
0.36761538000000016,3.512589791579272e-06,5.2053401295918585e-06,5.056991204514855e-06,2.284979795236871e-06,5.460760133823118e-06,7.263025708025418e-06,Stood
0.3681346199999993,3.515928474052004e-06,5.199390182256084e-06,5.049654287794746e-06,2.2818905429008398e-06,5.453964680953733e-06,7.262044738675094e-06,Stood
0.3686538499999994,3.505367723016384e-06,5.176668790023287e-06,5.035055953613433e-06,2.277451506545131e-06,5.453709585459138e-06,7.263986013029782e-06,Stood
0.3691730799999995,3.480069266806397e-06,5.14232677317788e-06,5.0256666375768565e-06,2.272955118250622e-06,5.451254335040645e-06,7.2758326677767266e-06,Stood
0.3696923099999996,3.4693234932419337e-06,5.103336151404411e-06,5.020646662137244e-06,2.2708939499318444e-06,5.440867147339921e-06,7.286550453652471e-06,Stood
0.3702115399999997,3.471138151523029e-06,5.064323787613437e-06,5.01610526306479e-06,2.272142288324551e-06,5.441702928667261e-06,7.286194725299326e-06,Stood
0.37073076999999977,3.470797885050955e-06,5.029598021597016e-06,5.013215224370996e-06,2.2747395913058498e-06,5.45345121954593e-06,7.281890819817498e-06,Stood
0.37124999999999986,3.4802718333375275e-06,4.995563242273958e-06,5.003387836160336e-06,2.27819019335192e-06,5.460439008840118e-06,7.282877161494725e-06,Stood
0.37176922999999995,3.4964129677862425e-06,4.954993214542285e-06,4.986919799055805e-06,2.280376902200237e-06,5.462251419371973e-06,7.294297140263612e-06,Stood
0.37228846000000004,3.502800354997902e-06,4.922333552497381e-06,4.984095897196369e-06,2.28302360168814e-06,5.463845777610687e-06,7.312128855396216e-06,Stood
0.37280769000000014,3.5023294873867843e-06,4.921498355402671e-06,4.997831423092636e-06,2.2839569787566224e-06,5.465734251164744e-06,7.327992462253526e-06,Stood
0.37332692000000023,3.5017491693695226e-06,4.944507599489557e-06,5.010198154748513e-06,2.2785936496008198e-06,5.465474933084948e-06,7.337468633432885e-06,Stood
0.37384614999999854,3.5062460612183025e-06,4.961725771929622e-06,5.014960848590727e-06,2.285026025100288e-06,5.460520292680315e-06,7.335333118575181e-06,Stood
0.37436537999999864,3.499932063895169e-06,4.954536505895698e-06,5.016361771056587e-06,2.307229925718696e-06,5.450396874162577e-06,7.32857213096219e-06,Stood
0.37488461999999956,3.4590022628779045e-06,4.918319918372984e-06,5.015751353074116e-06,2.3118417471944343e-06,5.438590025965923e-06,7.328040699321666e-06,Stood
0.37540384999999965,3.416176171126161e-06,4.857657577938362e-06,5.0139604872701935e-06,2.2915805321879324e-06,5.423956952294844e-06,7.328213776686127e-06,Stood
0.37592307999999974,3.4044154397886865e-06,4.785866688346258e-06,5.031195463674588e-06,2.2722450518669044e-06,5.411975059976037e-06,7.329622922427504e-06,Stood
0.37644230999999984,3.404408634413062e-06,4.719399919263802e-06,5.121240430440198e-06,2.264228586020865e-06,5.4134755128412e-06,7.329693470456064e-06,Stood
0.37696153999999993,3.4008209072480903e-06,4.66883612431322e-06,5.314958925900596e-06,2.2625761577567667e-06,5.41034513222902e-06,7.322300850287698e-06,Stood
0.37748077,3.3961489995163927e-06,4.632733583325108e-06,5.55009254329778e-06,2.261931182197562e-06,5.406421363401239e-06,7.320619802096868e-06,Stood
0.3780000000000001,3.3935680584094176e-06,4.601581960402837e-06,5.724374520429859e-06,2.259969345921889e-06,5.431043833356769e-06,7.328546199672209e-06,Stood
0.3785192300000002,3.394783785694817e-06,4.567548054285421e-06,5.801081966624186e-06,2.2571683600382475e-06,5.458680321069964e-06,7.333439519038669e-06,Stood
0.3790384599999985,3.3956023231319497e-06,4.525532491976707e-06,5.817556087538948e-06,2.2519932944064354e-06,5.462308739758501e-06,7.333617729939385e-06,Stood
0.3795576899999986,3.400433605883392e-06,4.479827246405018e-06,5.818184379990253e-06,2.243086734890089e-06,5.462249239616086e-06,7.345569206680264e-06,Stood
0.3800769199999987,3.417012956611875e-06,4.448944845347565e-06,5.818448613553032e-06,2.2357442675686604e-06,5.463661995972301e-06,7.361915908859391e-06,Stood
0.3805961499999988,3.428928838585316e-06,4.442540463080312e-06,5.819690458041204e-06,2.2340180160818075e-06,5.457020490936913e-06,7.354942916131757e-06,Stood
0.3811153799999989,3.4275826407733632e-06,4.450419587952632e-06,5.828859377256432e-06,2.233982669094461e-06,5.4467285405476064e-06,7.348257893263755e-06,Stood
0.3816346199999998,3.427372196308145e-06,4.459557716693675e-06,5.861470875838952e-06,2.2347856866595423e-06,5.437162822949891e-06,7.376211435754164e-06,Stood
0.3821538499999999,3.426742970930502e-06,4.462410165036743e-06,5.9247106911789325e-06,2.2348023544600503e-06,5.4367833473554015e-06,7.40421688538419e-06,Stood
0.38267308,3.4303703977525527e-06,4.461721086712852e-06,6.0004372685467685e-06,2.2395021661909563e-06,5.444993046491172e-06,7.399901196996023e-06,Stood
0.3831923100000001,3.452822365679846e-06,4.465273377278734e-06,6.0557384593287845e-06,2.262333085569356e-06,5.449104594809388e-06,7.412740903218865e-06,Stood
0.3837115400000002,3.4693914593788645e-06,4.4687359749157065e-06,6.074011153013024e-06,2.2887752207838645e-06,5.450585823271676e-06,7.506902246160927e-06,Stood
0.3842307699999985,3.469491150227975e-06,4.467578454783579e-06,6.063853875492093e-06,2.293151782806961e-06,5.450553681715362e-06,7.674939259798576e-06,Stood
0.3847499999999986,3.474856926636804e-06,4.4700441358732114e-06,6.038559878170751e-06,2.283361719010596e-06,5.451865900614124e-06,7.860113803125556e-06,Stood
0.3852692299999987,3.472406730233965e-06,4.480248577414119e-06,6.011319321776716e-06,2.278511578335504e-06,5.454371318283615e-06,8.017113478717327e-06,Stood
