Time,Rectus Femoris,Vastus Medialis,Vastus Lateralis,Bicep Femoris,Tibialis,Gastrocnemius Medialis,Activity
0.0005192299999983163,3.029202291735226e-05,4.8919303601057255e-06,2.181953311641601e-05,4.7855859373227065e-06,4.633766184775903e-05,1.1728496038239969e-05,Unknown
0.001038459999998409,3.035130921304563e-05,4.886525232663192e-06,2.180817465184629e-05,4.798565018269752e-06,4.6040230910953335e-05,1.1724768430789514e-05,Unknown
0.0015576899999985017,3.0430597366109383e-05,4.861197067207618e-06,2.1794122616483883e-05,4.806701596325934e-06,4.56986190100468e-05,1.1682719022413826e-05,Unknown
0.0020769199999985943,3.053322675591502e-05,4.813786366321641e-06,2.178686423378005e-05,4.799933925118753e-06,4.512259371279957e-05,1.15217720244582e-05,Unknown
0.002596149999998687,3.064950017694057e-05,4.749170258130408e-06,2.180153335945309e-05,4.781511725258339e-06,4.429115974058199e-05,1.1239327311941812e-05,Unknown
0.0031153799999987797,3.072813317865226e-05,4.683677371118132e-06,2.1848776627900056e-05,4.771381712246479e-06,4.35069924504028e-05,1.1005138090449285e-05,Unknown
0.0036346199999996998,3.074656232137619e-05,4.635852779430718e-06,2.192598839061607e-05,4.783735003235859e-06,4.302687721899083e-05,1.0928040469065954e-05,Unknown
0.004153849999999792,3.074680284197436e-05,4.607589495499245e-06,2.2013872002031303e-05,4.804746199917653e-06,4.2822957700043656e-05,1.0924101398919023e-05,Unknown
0.004673079999998109,3.075639186290447e-05,4.589478997104755e-06,2.208492624437484e-05,4.8246268530200936e-06,4.277552267433965e-05,1.0935290489306286e-05,Unknown
0.005192309999998201,3.076865471784494e-05,4.575680352457597e-06,2.212410421311721e-05,4.852737619206719e-06,4.275390904995229e-05,1.0969479559175888e-05,Unknown
0.005711539999998294,3.078488193883273e-05,4.566568087698593e-06,2.21368948030374e-05,4.894107991275653e-06,4.265753672034646e-05,1.0983445734933592e-05,Unknown
0.006230769999998387,3.081785095142524e-05,4.563437638255837e-06,2.2133515930691225e-05,4.942375741320499e-06,4.250495979757421e-05,1.0935188148692104e-05,Unknown
0.0067499999999984794,3.089561813562461e-05,4.5631505872697895e-06,2.2116880385965616e-05,4.984893107573776e-06,4.2400132795150026e-05,1.0865203899347309e-05,Unknown
0.007269229999998572,3.1007943659771014e-05,4.563484305874638e-06,2.208687391073745e-05,5.013348525246737e-06,4.242644607000102e-05,1.0834372043748351e-05,Unknown
0.007788459999998665,3.106482025941164e-05,4.566314334603549e-06,2.2046397707980645e-05,5.0325163518913245e-06,4.24982695684475e-05,1.0842108246348788e-05,Unknown
0.008307689999998757,3.105122477174242e-05,4.568831532668962e-06,2.200127417279128e-05,5.052810953351095e-06,4.241805115912745e-05,1.08575201487701e-05,Unknown
0.00882691999999885,3.1046519885453535e-05,4.5678758810871936e-06,2.1955580902753064e-05,5.079272376605967e-06,4.221812820685491e-05,1.0847601223827474e-05,Unknown
0.009346149999998943,3.106854801714721e-05,4.564773423391708e-06,2.1907680296345704e-05,5.105296357829984e-06,4.210531394842909e-05,1.08077739978813e-05,Unknown
0.009865379999999035,3.1124002097934946e-05,4.560636325241684e-06,2.185482360336696e-05,5.119559078691304e-06,4.210853330284375e-05,1.0792608684055008e-05,Unknown
0.01038461999999818,3.118291343332244e-05,4.55617916412389e-06,2.1800720123234252e-05,5.121930770640448e-06,4.216079361655258e-05,1.0813893789380652e-05,Unknown
0.010903849999998272,3.1169036005000053e-05,4.551363414796531e-06,2.175174290448537e-05,5.120371703845233e-06,4.224243265105112e-05,1.0828355843510273e-05,Unknown
0.011423079999998365,3.117171591563265e-05,4.544834404169571e-06,2.1712181392344502e-05,5.118273420987331e-06,4.230178438453922e-05,1.0832423190798914e-05,Unknown
0.011942309999998457,3.130196428271881e-05,4.533344530220171e-06,2.168273496388121e-05,5.116064170998479e-06,4.231278263438608e-05,1.0813149881110256e-05,Unknown
0.01246153999999855,3.148893863291589e-05,4.511164436102771e-06,2.1655642265347475e-05,5.115531422327484e-06,4.23118860531185e-05,1.0773099948648995e-05,Unknown
0.012980769999998643,3.165876127940005e-05,4.473971709767615e-06,2.162228328547965e-05,5.118684181614167e-06,4.231432477335132e-05,1.0765405705877974e-05,Unknown
0.013499999999998735,3.180810750836202e-05,4.4265332848112965e-06,2.1586523957002388e-05,5.125469248592787e-06,4.231329854047763e-05,1.0752225495250312e-05,Unknown
0.014019229999998828,3.1941839736011464e-05,4.381266685281343e-06,2.1560464621225195e-05,5.134876477297407e-06,4.228298265628489e-05,1.0655025020178296e-05,Unknown
0.01453845999999892,3.207266906022549e-05,4.348224776171799e-06,2.155089367810782e-05,5.149388578944426e-06,4.213424961697591e-05,1.0510033967172636e-05,Unknown
0.015057689999999013,3.2213424166676404e-05,4.328511881367106e-06,2.1553776199677576e-05,5.173749731457179e-06,4.1736435559029885e-05,1.0405186795753444e-05,Unknown
0.015576919999999106,3.238968642153268e-05,4.317147754354705e-06,2.1560399643639257e-05,5.2055672036227805e-06,4.1002072538750585e-05,1.0372681818469015e-05,Unknown
0.0160961499999992,3.2634499565852234e-05,4.314633305093367e-06,2.1568671940560885e-05,5.233208068801101e-06,3.9980479401287046e-05,1.037243699535681e-05,Unknown
0.01661537999999929,3.29171501293702e-05,4.315590591298519e-06,2.15828882112258e-05,5.24741272406628e-06,3.896031153553554e-05,1.0323424136416468e-05,Unknown
0.017134619999998435,3.315890094819189e-05,4.307247180348616e-06,2.1603470663573267e-05,5.248576396609698e-06,3.833563407645122e-05,1.0187446605078456e-05,Unknown
0.017653849999998528,3.333548837691848e-05,4.298589933209127e-06,2.1627050417604656e-05,5.244112800066531e-06,3.818043988820477e-05,1.0030065331572956e-05,Unknown
0.01817307999999862,3.3477634284225936e-05,4.301090945756052e-06,2.1651321474541757e-05,5.238867591075448e-06,3.8216556371217e-05,9.933296631846088e-06,Unknown
0.018692309999998713,3.360425458964154e-05,4.304945516502054e-06,2.167356702060901e-05,5.229518745497601e-06,3.8252118590565305e-05,9.897518986954297e-06,Unknown
0.019211539999998806,3.368955153444695e-05,4.304944615060836e-06,2.169064290343009e-05,5.218954074835229e-06,3.831516211302816e-05,9.887200837190142e-06,Unknown
0.0197307699999989,3.369997636227791e-05,4.306897616945455e-06,2.1699842361552375e-05,5.2150989858246834e-06,3.844316251864128e-05,9.88062502421012e-06,Unknown
0.02024999999999899,3.3674639548216974e-05,4.311577386451552e-06,2.170084715141471e-05,5.216488714503963e-06,3.851641626616077e-05,9.871440417146607e-06,Unknown
0.020769229999999084,3.366533551256711e-05,4.315023468910816e-06,2.169895245143094e-05,5.225788180560085e-06,3.8426185992381376e-05,9.866187952731236e-06,Unknown
0.021288459999999176,3.366717358530655e-05,4.317419629963354e-06,2.169853220807292e-05,5.248565031428153e-06,3.828436843465512e-05,9.866214757418991e-06,Unknown
0.02180768999999927,3.368699788334614e-05,4.318808810181875e-06,2.169790871299817e-05,5.274280379882728e-06,3.820576400155659e-05,9.861693498537113e-06,Unknown
0.02232691999999936,3.372339112529092e-05,4.310421136995545e-06,2.1686433264668018e-05,5.282505056809626e-06,3.817020384167413e-05,9.85057520355079e-06,Unknown
0.022846149999999454,3.37351083991898e-05,4.29163291087826e-06,2.1634092429929043e-05,5.26665125968298e-06,3.812079036350659e-05,9.846795869347986e-06,Unknown
0.023365379999999547,3.372137987645871e-05,4.279671927005522e-06,2.1515061907039655e-05,5.246219676041776e-06,3.797788000020441e-05,9.848081306008765e-06,Unknown
0.02388461999999869,3.3732474208644095e-05,4.278789430919842e-06,2.13453027127272e-05,5.239452866941854e-06,3.783471944078354e-05,9.84662212063339e-06,Unknown
0.024403849999998783,3.3815098727674264e-05,4.278384908044244e-06,2.115342492483004e-05,5.239596359626788e-06,3.789045583398003e-05,9.841511661992014e-06,Unknown
0.024923079999998876,3.3992206589855536e-05,4.279006903831344e-06,2.0925624228915e-05,5.238558432538933e-06,3.80483851397199e-05,9.72850953113341e-06,Unknown
0.02544230999999897,3.423536950150544e-05,4.279925210631991e-06,2.0608468545393944e-05,5.238556251424073e-06,3.8153757176019047e-05,9.392618210805404e-06,Unknown
0.02596153999999906,3.4461295882865485e-05,4.2741187918895e-06,2.016201955662761e-05,5.228656510564591e-06,3.82256952448829e-05,8.950252223971807e-06,Unknown
0.026480769999999154,3.460181098575152e-05,4.266585954519271e-06,1.96140911915652e-05,5.192392934323496e-06,3.826285066148263e-05,8.598492817825358e-06,Unknown
0.026999999999999247,3.465624799404472e-05,4.263985333713411e-06,1.9054915248708813e-05,5.142403185813011e-06,3.831637954913454e-05,8.367208159481266e-06,Unknown
0.02751922999999934,3.4666068072246e-05,4.269780273900177e-06,1.8563211116016323e-05,5.107432180090583e-06,3.842355126080363e-05,8.202222902149028e-06,Unknown
0.028038459999999432,3.466565607411675e-05,4.292638132324481e-06,1.8154394744192543e-05,5.093366788673314e-06,3.849999941937158e-05,8.091568445332212e-06,Unknown
0.028557689999999525,3.466474215538579e-05,4.323483344457109e-06,1.7802492808422078e-05,5.08791222818173e-06,3.8534685171961886e-05,8.056628626921949e-06,Unknown
0.029076919999999618,3.466470650656146e-05,4.339837342163751e-06,1.7485397750278202e-05,5.081982166555644e-06,3.8577536317235536e-05,8.057751980140763e-06,Unknown
0.02959614999999971,3.466911509086296e-05,4.340423635078089e-06,1.720897332739884e-05,5.072102823858545e-06,3.860116182818192e-05,8.037242064841207e-06,Unknown
0.030115379999999803,3.466884656575614e-05,4.334540263386656e-06,1.6999116018221256e-05,5.059534076837866e-06,3.856169462205845e-05,8.017017201687523e-06,Unknown
0.030634619999998947,3.466504283326542e-05,4.323783005021872e-06,1.6871248480972887e-05,5.048402126688256e-06,3.847174832192927e-05,8.016588516387098e-06,Unknown
0.03115384999999904,3.4682019196422884e-05,4.308396042833034e-06,1.681384053148072e-05,5.039919129440024e-06,3.8357446632786045e-05,8.015948031819496e-06,Unknown
0.03167307999999913,3.4705726188420575e-05,4.301244489491896e-06,1.6797315258706756e-05,5.031331886884892e-06,3.822757070090168e-05,7.997118583496517e-06,Unknown
0.032192309999999225,3.471190371759697e-05,4.318318883740815e-06,1.678891229187431e-05,5.021936958424457e-06,3.808036763657485e-05,7.938447784596347e-06,Unknown
0.03271153999999932,3.47214618564269e-05,4.345548282544962e-06,1.6776815955336107e-05,5.013491594162939e-06,3.793167668669633e-05,7.83490524186139e-06,Unknown
0.03323076999999941,3.4748757675527414e-05,4.357947167289309e-06,1.677553475733177e-05,5.006029571007262e-06,3.786390744292102e-05,7.72544964921198e-06,Unknown
0.0337499999999995,3.480009170380011e-05,4.35515297812766e-06,1.678202747067458e-05,4.998781952721636e-06,3.789230454843256e-05,7.661033073005645e-06,Unknown
0.034269229999999595,3.485537399892408e-05,4.348619096036625e-06,1.6757788302785952e-05,4.993192193436304e-06,3.792085064326674e-05,7.647155813848824e-06,Unknown
0.03478845999999969,3.485487109749792e-05,4.344098795911499e-06,1.6678838791199738e-05,4.991741317324548e-06,3.790956686713586e-05,7.647179680381676e-06,Unknown
0.03530768999999978,3.481439187636511e-05,4.343460635971647e-06,1.6574205750902746e-05,4.992434281399944e-06,3.78542898260719e-05,7.64382083031316e-06,Unknown
0.0358269199999981,3.47919005630072e-05,4.34724982194596e-06,1.6488159805656737e-05,4.99241240881989e-06,3.781426624586604e-05,7.651439770995317e-06,Unknown
0.03634614999999819,3.478133188055526e-05,4.35264262132112e-06,1.6422726568834607e-05,4.993364808090385e-06,3.789663269399364e-05,7.648514626760067e-06,Unknown
0.03686537999999828,3.478445286703593e-05,4.353435597387447e-06,1.63409432684006e-05,4.995434937911613e-06,3.802788018281064e-05,7.5587463057081e-06,Unknown
0.0373846199999992,3.480220238158926e-05,4.348883660661656e-06,1.620371309047606e-05,4.997205143453007e-06,3.80980218754766e-05,7.363501564455962e-06,Unknown
0.037903849999999295,3.478908642461318e-05,4.344586016407938e-06,1.6001894888662872e-05,4.998852920452231e-06,3.813206934164935e-05,7.162612229860877e-06,Unknown
0.03842307999999939,3.475180995302077e-05,4.34285809968759e-06,1.5763037225200676e-05,5.0003812265239245e-06,3.8152850866134586e-05,7.052931133614682e-06,Unknown
0.03894230999999948,3.47354470753633e-05,4.342772445221697e-06,1.5521566659215457e-05,5.001825284820307e-06,3.821753580306047e-05,7.0338418992624616e-06,Unknown
0.03946153999999957,3.473964855620526e-05,4.342751516130621e-06,1.528996955047736e-05,5.000748742751164e-06,3.835494824944384e-05,7.049227104674487e-06,Unknown
0.039980769999999666,3.476266583582242e-05,4.3403856597052e-06,1.505704194008206e-05,4.988843922559301e-06,3.846995612795695e-05,7.02924051538483e-06,Unknown
0.04049999999999976,3.482062142010435e-05,4.332688892740452e-06,1.4804592154375677e-05,4.95721375891387e-06,3.853190842493676e-05,6.930430426571594e-06,Unknown
0.04101922999999985,3.490977427578558e-05,4.321819821930666e-06,1.4530258879181772e-05,4.9101073428033535e-06,3.857768087391146e-05,6.8038177842944855e-06,Unknown
0.04153845999999817,3.500338898467081e-05,4.318575044515771e-06,1.424877187109812e-05,4.863293169888986e-06,3.860830133576751e-05,6.7463013355555405e-06,Unknown
0.04205768999999826,3.505708362484012e-05,4.326962920876371e-06,1.396902956236931e-05,4.825165027319548e-06,3.860360688542748e-05,6.746517412021418e-06,Unknown
0.04257691999999835,3.5060289934986765e-05,4.343400456631186e-06,1.369558162207744e-05,4.7934133801385004e-06,3.8546282173138194e-05,6.739653859120757e-06,Unknown
0.043096149999998445,3.506840187985323e-05,4.37262733552827e-06,1.3449444211726104e-05,4.769889148575325e-06,3.844725086622653e-05,6.734237484100909e-06,Unknown
0.04361537999999854,3.5100431200680244e-05,4.414407103617384e-06,1.3259254162053448e-05,4.7662797864301815e-06,3.833265766161799e-05,6.743744209932644e-06,Unknown
0.04413461999999946,3.511305129640173e-05,4.453625290902889e-06,1.3132562558231327e-05,4.781038955246923e-06,3.821920194370742e-05,6.748869167630586e-06,Unknown
0.04465384999999955,3.511026978932794e-05,4.481498655343087e-06,1.3052606637834992e-05,4.792929862101967e-06,3.813269431550358e-05,6.749392098923929e-06,Unknown
0.045173079999999644,3.511514642575061e-05,4.502004556733929e-06,1.2999746907299497e-05,4.79097786199686e-06,3.81326009162155e-05,6.771164000435467e-06,Unknown
0.045692309999999736,3.511497568174793e-05,4.5192891445676015e-06,1.2965095685540565e-05,4.779232775300158e-06,3.822736791179857e-05,6.817226094056282e-06,Unknown
0.04621153999999983,3.511916643369789e-05,4.531593748811873e-06,1.2945694676299822e-05,4.76975975880238e-06,3.832136605014719e-05,6.850813897528971e-06,Unknown
0.046730769999998145,3.5116959478198485e-05,4.535165467429371e-06,1.2935480565940912e-05,4.771635370709419e-06,3.833324171493041e-05,6.85504797969771e-06,Unknown
0.04724999999999824,3.5105247627036305e-05,4.5320566923180924e-06,1.2927332713453402e-05,4.7753296684891695e-06,3.826791691012219e-05,6.846850892605501e-06,Unknown
0.04776922999999833,3.5133730709068364e-05,4.528285336832631e-06,1.2915623005302074e-05,4.774491297106997e-06,3.82365128878377e-05,6.8364672970683e-06,Unknown
0.04828845999999842,3.51741789857928e-05,4.526782444789867e-06,1.2900512380072276e-05,4.769696771693809e-06,3.830942168185706e-05,6.845523051745638e-06,Unknown
0.048807689999998516,3.5185585009537045e-05,4.526591023627866e-06,1.2891555207357967e-05,4.764793955533262e-06,3.836513207864716e-05,6.914559079894403e-06,Unknown
0.04932691999999861,3.51850430008513e-05,4.52651750553291e-06,1.289231977449117e-05,4.766630036440327e-06,3.834158549733888e-05,7.050033679017438e-06,Unknown
0.0498461499999987,3.5165344534386514e-05,4.529489553303507e-06,1.2893522921377374e-05,4.762098718481177e-06,3.832205655822329e-05,7.224323360453299e-06,Unknown
0.050365379999998794,3.5134390386867594e-05,4.536541961875517e-06,1.2892477820904411e-05,4.747972263699322e-06,3.8323202131015815e-05,7.406924909593479e-06,Unknown
0.050884619999999714,3.5116763972434584e-05,4.542144637628114e-06,1.2894477944752532e-05,4.7432867626146605e-06,3.833572702396391e-05,7.553731704613781e-06,Unknown
0.05140384999999981,3.5132294110135174e-05,4.542115079890976e-06,1.2896616082809065e-05,4.743621853744995e-06,3.833509425366432e-05,7.602884632117483e-06,Unknown
0.05192307999999812,3.523434804773729e-05,4.538595392903682e-06,1.289336990781214e-05,4.738468320220411e-06,3.824424373113595e-05,7.578030074786298e-06,Unknown
0.052442309999998216,3.54556347521398e-05,4.540668574270004e-06,1.2883670355681807e-05,4.737061835577238e-06,3.811664214053974e-05,7.628706559144423e-06,Unknown
0.05296153999999831,3.576917902891757e-05,4.548480278430884e-06,1.2866468710753285e-05,4.7387020101547685e-06,3.806293476792237e-05,7.73870859346603e-06,Unknown
0.0534807699999984,3.613461729924695e-05,4.553427710653415e-06,1.2845100431956617e-05,4.737747651801578e-06,3.8061326772553854e-05,7.74670388266159e-06,Unknown
0.053999999999998494,3.648333883012032e-05,4.55886206473587e-06,1.2826621162038835e-05,4.738139820412181e-06,3.807496317407417e-05,7.83740310018721e-06,Unknown
0.054519229999998586,3.67232024974078e-05,4.563192610903167e-06,1.28144028365563e-05,4.738474268566883e-06,3.808108697992196e-05,8.261635277965744e-06,Unknown
0.05503845999999868,3.681938126454735e-05,4.553694798206907e-06,1.2807815038126446e-05,4.7389336653210205e-06,3.804853790309773e-05,8.794924128771805e-06,Unknown
0.05555768999999877,3.680423347422777e-05,4.534366861329806e-06,1.2801917541224848e-05,4.738176444275904e-06,3.801588620304755e-05,9.18218403245422e-06,Unknown
0.056076919999998864,3.673478722735155e-05,4.523437102296685e-06,1.2797273568883853e-05,4.728132532547275e-06,3.801279119103743e-05,9.442728069504718e-06,Unknown
0.05659614999999896,3.665719825946052e-05,4.532425132764977e-06,1.2806185329803186e-05,4.714705397558457e-06,3.801585691428475e-05,9.657597155655666e-06,Unknown
0.05711537999999905,3.658272968679396e-05,4.561315398185663e-06,1.2835476831705544e-05,4.712305023664586e-06,3.803000266704333e-05,9.819358988341048e-06,Unknown
0.05763461999999819,3.652706266106458e-05,4.601490858789295e-06,1.2877324109551105e-05,4.724751446785692e-06,3.8053330713383866e-05,9.880287883150783e-06,Unknown
0.058153849999998286,3.651935464714072e-05,4.648804014045652e-06,1.2919939577112553e-05,4.744474841471233e-06,3.805127132401551e-05,9.879300603439404e-06,Unknown
0.05867307999999838,3.653196405444039e-05,4.715658010691271e-06,1.295675793859973e-05,4.759621780448242e-06,3.80317774955095e-05,9.925345660400772e-06,Unknown
0.05919230999999847,3.652501920437889e-05,4.8196409088681615e-06,1.2986475080275317e-05,4.764452219578985e-06,3.802665877947358e-05,1.0159129840354636e-05,Unknown
0.059711539999998564,3.652103368905237e-05,4.948707412904379e-06,1.300760188058897e-05,4.76346277013898e-06,3.805818763327451e-05,1.0759161191098116e-05,Unknown
0.06023076999999866,3.6518362293136136e-05,5.052187947268266e-06,1.3012898637255712e-05,4.7615717325222354e-06,3.813333042358187e-05,1.1732994563182543e-05,Unknown
0.06074999999999875,3.650988425450404e-05,5.100724860918045e-06,1.2994387226967193e-05,4.76056803269063e-06,3.811021335899775e-05,1.272251963615924e-05,Unknown
0.06126922999999884,3.65242015507122e-05,5.115079215888184e-06,1.2959268241720747e-05,4.764370166689183e-06,3.788247063782474e-05,1.3357277566284362e-05,Unknown
0.061788459999998935,3.649912667050201e-05,5.120047333596623e-06,1.2926823376886698e-05,4.771927758799228e-06,3.7623720740228366e-05,1.3617535067895388e-05,Unknown
0.06230768999999903,3.637709275742521e-05,5.123303506736118e-06,1.290508898669974e-05,4.777114670404422e-06,3.7474212437739255e-05,1.368561986832728e-05,Unknown
0.06282691999999912,3.624179902846556e-05,5.124379873613208e-06,1.2888423816039764e-05,4.779579711737424e-06,3.737863519173988e-05,1.3699673808777786e-05,Unknown
0.06334614999999921,3.6184937701328455e-05,5.117818077378214e-06,1.2870935533702116e-05,4.780220867475882e-06,3.725719629039384e-05,1.3708072970357589e-05,Unknown
0.0638653799999993,3.6232422577371344e-05,5.107316079118383e-06,1.2855714142232464e-05,4.775473182323463e-06,3.705795956428174e-05,1.3702483671665712e-05,Unknown
0.06438461999999845,3.635645924434539e-05,5.105733254572977e-06,1.2852027580909997e-05,4.766242785669838e-06,3.6867455323940354e-05,1.3679145720505104e-05,Unknown
0.06490384999999854,3.648322096351023e-05,5.110446838983141e-06,1.2855944640042868e-05,4.761132024119333e-06,3.682912547137077e-05,1.366311841017648e-05,Unknown
0.06542307999999863,3.656959198070118e-05,5.116870044563919e-06,1.2849599293631012e-05,4.762192475421128e-06,3.6892372095229566e-05,1.3668353537525286e-05,Unknown
0.06594230999999873,3.662339281078748e-05,5.138582423556867e-06,1.2821140651121122e-05,4.764411092161929e-06,3.6942308330869056e-05,1.3684818457825446e-05,Unknown
0.06646153999999882,3.666058951097024e-05,5.179768822677885e-06,1.2770537541174688e-05,4.767087048882924e-06,3.694093656042006e-05,1.3697816550819452e-05,Unknown
0.06698076999999891,3.669126941136273e-05,5.2427972222190684e-06,1.2709948265724156e-05,4.766313486076955e-06,3.687415396569772e-05,1.3703449386362907e-05,Unknown
0.067499999999999,3.672167551674589e-05,5.33728808453193e-06,1.26565386417862e-05,4.755100058237406e-06,3.680639581086389e-05,1.3704314445684985e-05,Unknown
0.0680192299999991,3.676385974834179e-05,5.452652325105384e-06,1.2612135042341103e-05,4.73471732455485e-06,3.680872368899374e-05,1.3701572284096309e-05,Unknown
0.06853845999999919,3.682343868322389e-05,5.575277423671645e-06,1.2562845790078978e-05,4.7147716045321485e-06,3.680675673155446e-05,1.3699597711732206e-05,Unknown
0.06905768999999928,3.6871258134168845e-05,5.70053532467834e-06,1.2496811967392757e-05,4.704583924086976e-06,3.6714322625071374e-05,1.3699971907226773e-05,Unknown
0.06957691999999938,3.687445463047549e-05,5.818601023365689e-06,1.2422096921024863e-05,4.704210642491214e-06,3.654502134509844e-05,1.3700378567888516e-05,Unknown
0.07009614999999947,3.685564970381785e-05,5.922879896251918e-06,1.2364986254368274e-05,4.707800013024874e-06,3.632561406998099e-05,1.3699166370354227e-05,Unknown
0.07061537999999956,3.684917798753632e-05,6.012258871481429e-06,1.233739242774756e-05,4.709310797803614e-06,3.6120403265743376e-05,1.3692905595431262e-05,Unknown
0.0711346199999987,3.684936831254276e-05,6.080910907820533e-06,1.232818602463107e-05,4.707250715626826e-06,3.594306508600712e-05,1.368364840517628e-05,Unknown
0.0716538499999988,3.685756342644709e-05,6.121631357307023e-06,1.2325728971651404e-05,4.709600831504545e-06,3.5684244032127e-05,1.3678717192760238e-05,Unknown
0.07217307999999889,3.686597782820872e-05,6.137716074634926e-06,1.232606513213844e-05,4.720851045468932e-06,3.5336946765585216e-05,1.3680695520843572e-05,Unknown
0.07269230999999898,3.6839146809943696e-05,6.140322521658841e-06,1.2328505902706784e-05,4.7302599628329295e-06,3.503573575868784e-05,1.3683318098431372e-05,Unknown
0.07321153999999908,3.6783846330865785e-05,6.14040808496922e-06,1.2331938401709512e-05,4.728601348800551e-06,3.490547190060163e-05,1.3683467021133884e-05,Unknown
0.07373076999999917,3.67216112081226e-05,6.144924298494155e-06,1.2333723495582069e-05,4.718521585314971e-06,3.4944197501468965e-05,1.3683188571357831e-05,Unknown
0.07424999999999926,3.662987187889445e-05,6.152597188693772e-06,1.2331902986880996e-05,4.702607159700885e-06,3.5015550735883855e-05,1.368509649812126e-05,Unknown
0.07476922999999935,3.646183631160249e-05,6.159552045661342e-06,1.232447506679118e-05,4.673155618260924e-06,3.495489413713099e-05,1.3717544046854568e-05,Unknown
0.07528845999999945,3.621711436772779e-05,6.164021322406064e-06,1.2310937769995862e-05,4.627291965497328e-06,3.446169857826135e-05,1.3806850301141964e-05,Unknown
0.07580768999999954,3.603668000597992e-05,6.167458237213068e-06,1.2299365402332885e-05,4.586631490984115e-06,3.342594057735352e-05,1.3923631075351876e-05,Unknown
0.07632691999999963,3.604312703806815e-05,6.172731098687765e-06,1.2290591146934672e-05,4.570004599139417e-06,3.245814106419662e-05,1.4024122206590675e-05,Unknown
0.07684614999999972,3.610405600971852e-05,6.180514317445289e-06,1.226928631321623e-05,4.569253973923282e-06,3.214444274620757e-05,1.4109635140254343e-05,Unknown
0.07736537999999982,3.606183736009686e-05,6.190733631424629e-06,1.2227487837941728e-05,4.57137631947371e-06,3.220893057760327e-05,1.4200881248555243e-05,Unknown
0.07788461999999896,3.596482530022757e-05,6.203405989381971e-06,1.2181238784453238e-05,4.572926963803887e-06,3.219977286441255e-05,1.4282819953055563e-05,Unknown
0.07840384999999905,3.5893871223576026e-05,6.219678319888076e-06,1.2153808567959492e-05,4.572848903763961e-06,3.20873343912454e-05,1.43230849237829e-05,Unknown
0.07892307999999915,3.5857164718613416e-05,6.241836383944137e-06,1.2151173517964063e-05,4.571912035382371e-06,3.196783326302377e-05,1.4327338662422431e-05,Unknown
0.07944230999999924,3.58419395423836e-05,6.26845612984556e-06,1.2161433099273258e-05,4.572017474999117e-06,3.185745667259438e-05,1.4326163240197716e-05,Unknown
0.07996153999999933,3.584768679817019e-05,6.29149565920096e-06,1.2168765213094167e-05,4.567543106136699e-06,3.171292430280455e-05,1.432940086665538e-05,Unknown
0.08048076999999942,3.587328523095979e-05,6.305892647739857e-06,1.216944344660821e-05,4.551329620871172e-06,3.147050987684591e-05,1.433098989725663e-05,Unknown
0.08099999999999952,3.587619160558638e-05,6.3149641942947785e-06,1.2169657705954238e-05,4.528245198542559e-06,3.1151419177666794e-05,1.4330000785392322e-05,Unknown
0.08151922999999961,3.583702715582002e-05,6.3216681481700445e-06,1.217421330714658e-05,4.510272508986223e-06,3.0858617318775127e-05,1.4327136543613417e-05,Unknown
0.0820384599999997,3.580382893611241e-05,6.328515577732211e-06,1.2187861797696624e-05,4.50322458359166e-06,3.0645987325529e-05,1.4316021771085568e-05,Unknown
0.0825576899999998,3.5804517843096445e-05,6.341069508640049e-06,1.2217127492200438e-05,4.50316100943766e-06,3.049156876320541e-05,1.4284976045509683e-05,Unknown
0.08307691999999811,3.5814846930888125e-05,6.357534882443418e-06,1.2262443082253978e-05,4.504701584021944e-06,3.0353288646615777e-05,1.423329660922389e-05,Unknown
0.0835961499999982,3.582054125718391e-05,6.369809104283362e-06,1.2315334898976852e-05,4.505759950834551e-06,3.0185598880527275e-05,1.4174538030299472e-05,Unknown
0.0841153799999983,3.582977426350114e-05,6.375585818702427e-06,1.2369229671512888e-05,4.505787206399169e-06,2.999710597429532e-05,1.4118397466227971e-05,Unknown
0.08463461999999922,3.585388242674323e-05,6.368454913791718e-06,1.2423787780634137e-05,4.504996867261655e-06,2.982608628691524e-05,1.40677537194115e-05,Unknown
0.08515384999999931,3.589369825669199e-05,6.338251221103109e-06,1.2476129824206495e-05,4.502946910671944e-06,2.977820709626818e-05,1.4028289098799552e-05,Unknown
0.0856730799999994,3.592269565190161e-05,6.293041396201932e-06,1.2515056185029797e-05,4.49944323020942e-06,3.0052846206243097e-05,1.4006152199837976e-05,Unknown
0.0861923099999995,3.592373554443455e-05,6.254781966710959e-06,1.2533727926229758e-05,4.497128598818794e-06,3.050785169401137e-05,1.4000073330588509e-05,Unknown
0.08671153999999959,3.589411437494228e-05,6.238798986994854e-06,1.2542669981297962e-05,4.498443824095504e-06,3.07212199718364e-05,1.4001623237771807e-05,Unknown
0.08723076999999968,3.582057612296481e-05,6.253345770857017e-06,1.25533851321631e-05,4.503547977989148e-06,3.068456917695774e-05,1.3999760264202007e-05,Unknown
0.08774999999999977,3.573899553647375e-05,6.293753359880375e-06,1.2563435181690602e-05,4.510148241690481e-06,3.0623511864682545e-05,1.3985256264237304e-05,Unknown
0.08826922999999809,3.5705240365305145e-05,6.32974603138541e-06,1.2564540260243805e-05,4.512997589062678e-06,3.0596082012039016e-05,1.3956210556674896e-05,Unknown
0.08878845999999818,3.5704594219202986e-05,6.338765082705388e-06,1.2544078521324212e-05,4.512339991034184e-06,3.068223708939962e-05,1.3918255678085764e-05,Unknown
0.08930768999999827,3.572260100326644e-05,6.3348738485778655e-06,1.2500307284544288e-05,4.513656307776752e-06,3.0821436461791115e-05,1.3879021754641371e-05,Unknown
0.08982691999999837,3.578431587933466e-05,6.334733686760025e-06,1.2457147814335427e-05,4.5183324853248765e-06,3.078505515988222e-05,1.384644266345119e-05,Unknown
0.09034614999999846,3.586935084097124e-05,6.33559589923956e-06,1.243460635997798e-05,4.517333373467385e-06,3.064269735998125e-05,1.3825227481589244e-05,Unknown
0.09086537999999855,3.5930707098837304e-05,6.33635551271813e-06,1.2421147691715672e-05,4.495849758209864e-06,3.057002605182452e-05,1.3812978691119306e-05,Unknown
0.09138461999999947,3.595166180445822e-05,6.341719244928698e-06,1.2381564787526e-05,4.463136977062383e-06,3.052209796887073e-05,1.3805014279742948e-05,Unknown
0.09190384999999957,3.591914282893647e-05,6.350311865085367e-06,1.231291283654377e-05,4.442394328240822e-06,3.0419094051554134e-05,1.3796344985082854e-05,Unknown
0.09242307999999966,3.584642000738123e-05,6.356549967832325e-06,1.22592772360394e-05,4.432559373272083e-06,3.0162203129455575e-05,1.378099293943562e-05,Unknown
0.09294230999999975,3.579642238701917e-05,6.354882238265565e-06,1.223836233254194e-05,4.425059962418356e-06,2.983499530588052e-05,1.3755721218540906e-05,Unknown
0.09346153999999984,3.5800653391485485e-05,6.345285327134511e-06,1.2232257985324271e-05,4.426178885849837e-06,2.9687400509053415e-05,1.3730750402009923e-05,Unknown
0.09398076999999816,3.582886385695657e-05,6.33544349204661e-06,1.2228762973257633e-05,4.442758833068195e-06,2.966574921651241e-05,1.3720799008676157e-05,Unknown
0.09449999999999825,3.584584495645004e-05,6.329426519986019e-06,1.2225739947303726e-05,4.462610936866686e-06,2.961072557487541e-05,1.3722100432881475e-05,Unknown
0.09501922999999834,3.583194960507647e-05,6.321933148484331e-06,1.2221384262180508e-05,4.4696550358438585e-06,2.94808525665385e-05,1.3728333152604733e-05,Unknown
0.09553845999999844,3.5779977959415954e-05,6.306118848491382e-06,1.2206327373895907e-05,4.469577137665251e-06,2.929477568444662e-05,1.3741160867287464e-05,Unknown
0.09605768999999853,3.5698564641056577e-05,6.286534605861517e-06,1.2177413763358716e-05,4.46912215991411e-06,2.918199141150969e-05,1.3753141046776787e-05,Unknown
0.09657691999999862,3.561354025114526e-05,6.277342712577368e-06,1.214708267075547e-05,4.46218009005604e-06,2.927838354555926e-05,1.375664228657658e-05,Unknown
0.09709614999999872,3.5564590345926305e-05,6.28135858031575e-06,1.2136559022897751e-05,4.452099355163395e-06,2.9642112125036827e-05,1.375606825412183e-05,Unknown
0.09761537999999881,3.55672088384023e-05,6.289257323434051e-06,1.217454182281023e-05,4.448024646667942e-06,3.026725220831376e-05,1.375619035866716e-05,Unknown
0.09813461999999973,3.559367566780557e-05,6.294368269121184e-06,1.2256358820870598e-05,4.449822345110729e-06,3.0976844190948425e-05,1.375331201801211e-05,Unknown
0.09865384999999982,3.5620069769762885e-05,6.295689904363517e-06,1.2300399802087662e-05,4.452639336008436e-06,3.149405574806886e-05,1.3742141342172033e-05,Unknown
0.09917307999999814,3.564722330417234e-05,6.295688381969123e-06,1.221084384837338e-05,4.453462915467997e-06,3.1747508953263146e-05,1.3728618174269636e-05,Unknown
0.09969230999999823,3.565914078016057e-05,6.295713304479821e-06,1.1979875970946727e-05,4.455751470294015e-06,3.185723177579973e-05,1.3725080150354374e-05,Unknown
0.10021153999999832,3.5543890807254304e-05,6.29584181714236e-06,1.168709762953823e-05,4.466324551564284e-06,3.192890077777852e-05,1.3729463143491223e-05,Unknown
0.10073076999999842,3.514638137669472e-05,6.297040498403622e-06,1.1421123029512592e-05,4.484004282535814e-06,3.2002980894437604e-05,1.3730946960705175e-05,Unknown
0.10124999999999851,3.4556304126254846e-05,6.298187383403543e-06,1.1231902471920971e-05,4.501104808458049e-06,3.201747684622381e-05,1.3729343184432358e-05,Unknown
0.1017692299999986,3.408458421996827e-05,6.293556143147637e-06,1.113149008289648e-05,4.515109843241561e-06,3.1949660900387804e-05,1.3729727392866389e-05,Unknown
0.1022884599999987,3.382152192683297e-05,6.273692364272586e-06,1.1105111125809924e-05,4.5288917480128665e-06,3.1912875652149805e-05,1.3733980620859492e-05,Unknown
0.10280768999999879,3.361221555887788e-05,6.230562427265909e-06,1.1123142449153008e-05,4.544349530806141e-06,3.193733274396543e-05,1.3741314813832564e-05,Unknown
0.10332691999999888,3.335005672937162e-05,6.16771542984932e-06,1.1157477916788724e-05,4.559604144963677e-06,3.194719555993847e-05,1.3746846112888483e-05,Unknown
0.10384614999999897,3.310278380352832e-05,6.103783395969486e-06,1.1190910834310837e-05,4.568244344015375e-06,3.189148910356894e-05,1.3746423882251809e-05,Unknown
0.10436537999999906,3.312093913603758e-05,6.058086236969285e-06,1.1215564051745015e-05,4.5685087396302e-06,3.1776122434237616e-05,1.3743297621959964e-05,Unknown
0.10488461999999821,3.347286187209195e-05,6.033206829295097e-06,1.1227669806430207e-05,4.567562405766921e-06,3.173246894800197e-05,1.3746347099874537e-05,Unknown
0.1054038499999983,3.390793967308841e-05,6.017953702651521e-06,1.1236059732805449e-05,4.567403952404048e-06,3.188052542600758e-05,1.3767228915774786e-05,Unknown
0.10592307999999839,3.4262157516218945e-05,6.003695105483356e-06,1.1254205361623753e-05,4.56395192620857e-06,3.2143729387214174e-05,1.3815393801109271e-05,Unknown
0.10644230999999849,3.449142087539212e-05,5.989527499476536e-06,1.1270691757123789e-05,4.55697922673529e-06,3.237333700997099e-05,1.3882023426627183e-05,Unknown
0.10696153999999858,3.4536530328494535e-05,5.980267669088912e-06,1.1271945907384354e-05,4.550932784846828e-06,3.2468255812603415e-05,1.3927888112686214e-05,Unknown
0.10748076999999867,3.448438321783779e-05,5.9787295313512e-06,1.1256886944536637e-05,4.553181316377055e-06,3.2468566881403894e-05,1.3933820562627183e-05,Unknown
0.10799999999999876,3.459587698511027e-05,5.980586988085752e-06,1.1217152474316814e-05,4.564655575129508e-06,3.25204251986608e-05,1.3929577124010172e-05,Unknown
0.10851922999999886,3.487222427672359e-05,5.983126808641947e-06,1.1163768951035102e-05,4.576081082957212e-06,3.261594805638038e-05,1.3931562263432178e-05,Unknown
0.10903845999999895,3.5008962972984e-05,5.983248368850636e-06,1.1122992822829284e-05,4.581013634249082e-06,3.268803306070133e-05,1.393530292848047e-05,Unknown
0.10955768999999904,3.500830202842849e-05,5.976539519414228e-06,1.1099843164654776e-05,4.576449836846425e-06,3.279522031673369e-05,1.3948883425961053e-05,Unknown
0.11007691999999913,3.503309079036194e-05,5.965651340517575e-06,1.1086269239114302e-05,4.5551224856262e-06,3.2927047227961496e-05,1.4022194688920347e-05,Unknown
0.11059614999999923,3.504447139947012e-05,5.9528974304194384e-06,1.1078412488258996e-05,4.522682280384947e-06,3.297417291012118e-05,1.4241521829263172e-05,Unknown
0.11111537999999932,3.503570796735293e-05,5.9362019858964005e-06,1.1081763975839828e-05,4.500976958242536e-06,3.294636624849525e-05,1.4604792067823986e-05,Unknown
0.11163461999999846,3.502796640919614e-05,5.916542354016716e-06,1.1094423167310643e-05,4.495986129653752e-06,3.291891707987408e-05,1.4978714337895012e-05,Unknown
0.11215384999999856,3.505559454811748e-05,5.898530829143688e-06,1.1101826639786908e-05,4.50555643712811e-06,3.291309670200201e-05,1.5223119418949425e-05,Unknown
0.11267307999999865,3.51997664653677e-05,5.890012458301148e-06,1.110076453848652e-05,4.528034000432022e-06,3.295027460986197e-05,1.5299631644624694e-05,Unknown
0.11319230999999874,3.5404657924018775e-05,5.895211908891798e-06,1.1100440691619909e-05,4.539024545789428e-06,3.2992518446018536e-05,1.5295791207703387e-05,Unknown
0.11371153999999883,3.553297505981403e-05,5.905679612532211e-06,1.1108900008430844e-05,4.522939958993072e-06,3.298985393471631e-05,1.5335781950830348e-05,Unknown
0.11423076999999893,3.5569237677314154e-05,5.909681406320616e-06,1.1124439823053434e-05,4.496038971915076e-06,3.2987336143446324e-05,1.5439305638129903e-05,Unknown
0.11474999999999902,3.5592474996136534e-05,5.897415707639772e-06,1.1132850569994746e-05,4.474260420701301e-06,3.299140969465382e-05,1.5539431027488412e-05,Unknown
0.11526922999999911,3.559611163401333e-05,5.867493226369411e-06,1.1126574511743332e-05,4.460600054200828e-06,3.309779312032667e-05,1.5605999432139293e-05,Unknown
0.1157884599999992,3.548913128426131e-05,5.839709879968752e-06,1.1114280465663584e-05,4.452190684328736e-06,3.327221168587928e-05,1.5657141320095972e-05,Unknown
0.1163076899999993,3.5306844455365095e-05,5.828389587792938e-06,1.110475808685174e-05,4.44652354857323e-06,3.32463948502036e-05,1.571004521363436e-05,Unknown
0.11682691999999939,3.516510175973303e-05,5.825358566081606e-06,1.1100579671802016e-05,4.444549869930541e-06,3.344645884458325e-05,1.575783204008942e-05,Unknown
0.11734614999999948,3.50573468041891e-05,5.823275951485291e-06,1.110405316048262e-05,4.444876760953406e-06,3.421993848006442e-05,1.578524417261926e-05,Unknown
0.11786537999999958,3.4901306228326886e-05,5.820452004894933e-06,1.1115688403514327e-05,4.443985084161916e-06,3.480958158516488e-05,1.580051372223277e-05,Unknown
0.11838461999999872,3.461940604235534e-05,5.814230012585044e-06,1.1126370311358997e-05,4.441147981021091e-06,3.4896293289707014e-05,1.5829108571841896e-05,Unknown
0.11890384999999881,3.419499144335003e-05,5.804621931508517e-06,1.1121841284952168e-05,4.437625346642075e-06,3.489269497517669e-05,1.5909149895108075e-05,Unknown
0.1194230799999989,3.374261607417763e-05,5.796272965736607e-06,1.1098122470695036e-05,4.434330400977512e-06,3.48936564207837e-05,1.604578058865291e-05,Unknown
0.119942309999999,3.3385056179223674e-05,5.792040475103784e-06,1.106480316962064e-05,4.431022118731251e-06,3.488787830202635e-05,1.6165189528625536e-05,Unknown
0.12046153999999909,3.313010402502141e-05,5.78974268632515e-06,1.1035592410258912e-05,4.427394365383341e-06,3.490698952783189e-05,1.621308617882953e-05,Unknown
0.12098076999999918,3.292340036854571e-05,5.790498921965239e-06,1.102119956125388e-05,4.4227370144460906e-06,3.485030272250982e-05,1.621732103850149e-05,Unknown
0.12149999999999928,3.2725387671917886e-05,5.797156728564917e-06,1.102627434736836e-05,4.415720966868225e-06,3.474841227168159e-05,1.621629795030626e-05,Unknown
0.12201922999999937,3.255348017570408e-05,5.805896864781406e-06,1.1034069311146098e-05,4.406525621284425e-06,3.472217143684812e-05,1.6217548715976106e-05,Unknown
0.12253845999999946,3.2461626062151495e-05,5.810531680933352e-06,1.101781744951926e-05,4.398770481348187e-06,3.4737089002594414e-05,1.6217433773879918e-05,Unknown
0.12305768999999955,3.2458287389648395e-05,5.810357998064276e-06,1.0989574386942026e-05,4.396701762695194e-06,3.473553193997717e-05,1.6217876360219145e-05,Unknown
0.12357691999999965,3.248748701078418e-05,5.809308112133028e-06,1.0983521604924202e-05,4.397933908755191e-06,3.472235483275776e-05,1.6220691756596528e-05,Unknown
0.12409614999999974,3.250530540159813e-05,5.809706793364208e-06,1.1000578350339313e-05,4.39773160951596e-06,3.465336671120254e-05,1.6224863093560715e-05,Unknown
0.12461537999999983,3.249463621563851e-05,5.809189126076512e-06,1.1024291092106613e-05,4.396308726290508e-06,3.455976094462809e-05,1.6229488756875758e-05,Unknown
0.12513461999999898,3.246682517186246e-05,5.802718820244982e-06,1.1056587896419604e-05,4.388914979437225e-06,3.4527983297122135e-05,1.623166393640449e-05,Unknown
0.12565384999999907,3.2467115384352354e-05,5.788958922476493e-06,1.1127525570714804e-05,4.36717784925077e-06,3.4526658587733964e-05,1.6230570928928986e-05,Unknown
0.12617307999999916,3.247686033383088e-05,5.772967119644503e-06,1.1293950158451728e-05,4.343629637674229e-06,3.452930347627438e-05,1.6229338352622663e-05,Unknown
0.12669230999999925,3.242631097666968e-05,5.762491546003879e-06,1.1587886164340771e-05,4.338716182242448e-06,3.452935009209907e-05,1.622918826499127e-05,Unknown
0.12721153999999935,3.23112636810535e-05,5.758319966249971e-06,1.1957751474119149e-05,4.344796918472881e-06,3.448674657144616e-05,1.6229003161584008e-05,Unknown
0.12773076999999944,3.2181547382066434e-05,5.755087914402645e-06,1.2297743372805858e-05,4.344057797274689e-06,3.44425856739119e-05,1.6227675451238058e-05,Unknown
0.12824999999999953,3.2103111956079546e-05,5.752366097739097e-06,1.2521645057328512e-05,4.332824440050089e-06,3.4426894125765254e-05,1.62231485415916e-05,Unknown
0.12876922999999962,3.2103540656149774e-05,5.7508478206535015e-06,1.260006109965709e-05,4.314273612455588e-06,3.440492607638046e-05,1.62226205852004e-05,Unknown
0.12928845999999972,3.2122661127411594e-05,5.748569125446933e-06,1.2566128334284444e-05,4.292802325977225e-06,3.43748217455268e-05,1.6235682718968866e-05,Unknown
0.1298076899999998,3.211651636807448e-05,5.74638011666183e-06,1.24981957934444e-05,4.268017798578787e-06,3.42876889981643e-05,1.624168993737163e-05,Unknown
0.13032691999999813,3.210337011267364e-05,5.74591277948614e-06,1.2468774089121118e-05,4.233706200405718e-06,3.4138438338025474e-05,1.6220696378551223e-05,Unknown
0.13084614999999822,3.208791267396792e-05,5.745962776938125e-06,1.2523921847239276e-05,4.18574734978401e-06,3.405273630637885e-05,1.6199700230740635e-05,Unknown
0.1313653799999983,3.205466231278152e-05,5.746701144128385e-06,1.272245553543612e-05,4.129527049156515e-06,3.4041192039549195e-05,1.6205488174202527e-05,Unknown
0.13188461999999923,3.197860481482683e-05,5.749068078179882e-06,1.3112299370135357e-05,4.078792603701952e-06,3.401915087817185e-05,1.6223841466889566e-05,Unknown
0.13240384999999932,3.186943507015966e-05,5.750423675248854e-06,1.3649523069092073e-05,4.041407368974703e-06,3.396151380409488e-05,1.6233126136766293e-05,Unknown
0.13292307999999942,3.1811220214619026e-05,5.748247161257656e-06,1.4218995525674602e-05,4.012364388709481e-06,3.385455924562144e-05,1.62312179860383e-05,Unknown
0.1334423099999995,3.184937513337648e-05,5.745597483229612e-06,1.4729666486473264e-05,3.982000725992706e-06,3.374253226777036e-05,1.6228770716535535e-05,Unknown
0.1339615399999996,3.1943409297562845e-05,5.745222162380372e-06,1.5160301480748364e-05,3.946986566057105e-06,3.368580924523388e-05,1.623952020469268e-05,Unknown
0.1344807699999997,3.2044607662661685e-05,5.745870723639255e-06,1.554201660718919e-05,3.92111748037099e-06,3.3664131060280645e-05,1.626174294226165e-05,Unknown
0.1349999999999998,3.211408356620878e-05,5.747126394606135e-06,1.5912532211908034e-05,3.921795909201745e-06,3.363959640250317e-05,1.6270984406307316e-05,Unknown
0.1355192299999981,3.216259671101771e-05,5.749784414954775e-06,1.6275021432159818e-05,3.939236680698965e-06,3.358413861533604e-05,1.6259509577411596e-05,Unknown
0.1360384599999982,3.2226868322734915e-05,5.753141903112465e-06,1.658885200126703e-05,3.951489861579056e-06,3.350283545409735e-05,1.6247973582883622e-05,Unknown
0.1365576899999983,3.224746527987191e-05,5.754248755133551e-06,1.6800894492423462e-05,3.9556727782055285e-06,3.344160168440435e-05,1.6245411031562557e-05,Unknown
0.13707691999999838,3.2157218540427905e-05,5.7544420125054574e-06,1.6898261892639506e-05,3.958872380909601e-06,3.34234119232572e-05,1.6245419179973285e-05,Unknown
0.13759614999999847,3.200807535200119e-05,5.756776577426386e-06,1.69200634456164e-05,3.969070931141557e-06,3.3440982175201675e-05,1.6245214985717445e-05,Unknown
0.13811537999999857,3.185845117030852e-05,5.759090686515432e-06,1.69118904633977e-05,3.993489711183879e-06,3.350342492839119e-05,1.6245070565355372e-05,Unknown
0.1386346199999995,3.1711674603731765e-05,5.76015776868184e-06,1.6893603856269376e-05,4.023441732444109e-06,3.3591548584058135e-05,1.624627894779388e-05,Unknown
0.13915384999999958,3.158110777559745e-05,5.760781864424812e-06,1.6867353087331454e-05,4.042153081140649e-06,3.364079335065983e-05,1.624730108143414e-05,Unknown
0.13967307999999967,3.146416547562587e-05,5.75954575044792e-06,1.683753441408293e-05,4.04557675356986e-06,3.363645353539215e-05,1.6245977366027853e-05,Unknown
0.14019230999999976,3.131862529241102e-05,5.756620968300721e-06,1.682438007270869e-05,4.040640840640083e-06,3.360362997559318e-05,1.6244543519043522e-05,Unknown
0.14071153999999986,3.1113798068050533e-05,5.7555930168296125e-06,1.6855069754721483e-05,4.041703595139772e-06,3.354441894767932e-05,1.6244607132796107e-05,Unknown
0.14123076999999817,3.082973133483008e-05,5.755721224805559e-06,1.6944331850598584e-05,4.057186150172315e-06,3.34356096749161e-05,1.624495103100644e-05,Unknown
0.14174999999999827,3.049287397015206e-05,5.754870514840723e-06,1.7099603777877535e-05,4.071807204535554e-06,3.322082155480771e-05,1.624487529258527e-05,Unknown
0.14226922999999836,3.019733146557421e-05,5.755044464620858e-06,1.734523686425235e-05,4.066447264420599e-06,3.294935818096051e-05,1.624464714074534e-05,Unknown
0.14278845999999845,2.9983351843232677e-05,5.752531655934978e-06,1.7728848638541903e-05,4.037402865097181e-06,3.27890315786245e-05,1.6246758941628608e-05,Unknown
0.14330768999999854,2.981531274413948e-05,5.745691742742374e-06,1.8289793456483084e-05,3.996649446150868e-06,3.275123860349417e-05,1.626155405999576e-05,Unknown
0.14382691999999864,2.9666173825614805e-05,5.742765511142049e-06,1.901934188749556e-05,3.972461824172333e-06,3.271543988444294e-05,1.6285443396725647e-05,Unknown
0.14434614999999873,2.954921617762976e-05,5.7437397837899766e-06,1.9873114406354844e-05,3.97686386611142e-06,3.2602708872817823e-05,1.6291433073678858e-05,Unknown
0.14486537999999882,2.950872979837029e-05,5.742356863676765e-06,2.081522911411272e-05,3.989366975464767e-06,3.237872192192261e-05,1.629490120282084e-05,Unknown
0.14538461999999974,2.953690538326068e-05,5.7386852967537854e-06,2.1821427830698247e-05,3.993750921890216e-06,3.216035403781649e-05,1.6355053252051106e-05,Unknown
0.14590384999999984,2.9570675670923884e-05,5.734594900334722e-06,2.284975462326964e-05,3.982931287254473e-06,3.213455898443266e-05,1.6475682807620568e-05,Unknown
0.14642307999999815,2.958405530152973e-05,5.731657700005051e-06,2.3837806838896407e-05,3.952355558601121e-06,3.2271474069626454e-05,1.660777114831359e-05,Unknown
0.14694230999999824,2.9568962441507023e-05,5.731222507679774e-06,2.474023447729248e-05,3.9180394088044e-06,3.2421333327444734e-05,1.6733175491607988e-05,Unknown
0.14746153999999834,2.952386829741592e-05,5.731799002077858e-06,2.555697758089309e-05,3.900879963467938e-06,3.252045471012269e-05,1.687953227238418e-05,Unknown
0.14798076999999843,2.9501047373117467e-05,5.731293920294166e-06,2.631090953893084e-05,3.899462737043076e-06,3.25771293320891e-05,1.707152802497633e-05,Unknown
0.14849999999999852,2.955285176165153e-05,5.729896667487245e-06,2.6997191760599627e-05,3.903356293678225e-06,3.265268990558646e-05,1.725514088690151e-05,Unknown
0.14901922999999861,2.96618266933417e-05,5.729570384974764e-06,2.756671882063768e-05,3.912088873618245e-06,3.2743122636932213e-05,1.7321982379878107e-05,Unknown
0.1495384599999987,2.9782913430868155e-05,5.730265665246174e-06,2.7980065475918835e-05,3.9320879519027584e-06,3.275152787724687e-05,1.73269648121116e-05,Unknown
0.1500576899999988,2.9865481681677424e-05,5.730274729561269e-06,2.8263689763863685e-05,3.964492110351616e-06,3.270801342386902e-05,1.7516601672047975e-05,Unknown
0.1505769199999989,2.9846431455431277e-05,5.729595055005031e-06,2.848513037833437e-05,3.994463670761396e-06,3.270301839013067e-05,1.793848411881728e-05,Unknown
0.15109614999999899,2.9746466451986692e-05,5.72914654914194e-06,2.869471143663621e-05,4.006815169139961e-06,3.269154750920431e-05,1.833051690721065e-05,Unknown
0.15161537999999908,2.9673697764037412e-05,5.729115644418436e-06,2.8903234468810196e-05,4.008082889724159e-06,3.262481395755509e-05,1.851678123058357e-05,Unknown
0.15213461999999822,2.968041365994892e-05,5.7291740795365935e-06,2.9097862580528343e-05,4.007851131511101e-06,3.251487882398391e-05,1.855989564432941e-05,Unknown
0.15265384999999831,2.97304831400512e-05,5.726693713608596e-06,2.9269190742274267e-05,4.010797422330449e-06,3.2386524151993054e-05,1.8563792840021383e-05,Unknown
0.1531730799999984,2.9766853702371794e-05,5.715798405406192e-06,2.9416872211086007e-05,4.026286599649953e-06,3.227393910932822e-05,1.8564590410092337e-05,Unknown
0.1536923099999985,2.977419830360094e-05,5.701415374112511e-06,2.9538114223310447e-05,4.047211531035496e-06,3.2163685656577085e-05,1.8568159783621958e-05,Unknown
0.1542115399999986,2.977312363794892e-05,5.697470081416305e-06,2.9624966003776173e-05,4.057861649021057e-06,3.2052826185342725e-05,1.8578322547232596e-05,Unknown
0.15473076999999869,2.9765528137985948e-05,5.704193276401426e-06,2.967361466055869e-05,4.059812903627255e-06,3.2034420439059644e-05,1.858675062333143e-05,Unknown
0.15524999999999878,2.976416795038373e-05,5.713965613073394e-06,2.9690339387982885e-05,4.0585975548878834e-06,3.211457133593969e-05,1.8582627239013488e-05,Unknown
0.15576922999999887,2.976400398350233e-05,5.723515239254393e-06,2.968905870551765e-05,4.052747035493051e-06,3.2175749168532626e-05,1.857405563185641e-05,Unknown
0.15628845999999896,2.973341879134164e-05,5.7313973219393526e-06,2.9684147850573e-05,4.041575459918058e-06,3.219547783139131e-05,1.856947115885985e-05,Unknown
0.15680768999999906,2.973859753554444e-05,5.730594735729505e-06,2.968782686410153e-05,4.029860311399014e-06,3.221093114239431e-05,1.8566699070189213e-05,Unknown
0.15732691999999915,2.983593232592439e-05,5.712623179323813e-06,2.971659053875513e-05,4.022622879091087e-06,3.225286132187024e-05,1.8563036805071925e-05,Unknown
0.15784614999999924,2.993215244594018e-05,5.68656553238565e-06,2.97877027916818e-05,4.023119485697606e-06,3.234903553347559e-05,1.8558404026565243e-05,Unknown
0.15836537999999933,2.994788471961046e-05,5.671842327980748e-06,2.991244372138749e-05,4.033524048331038e-06,3.242095043184327e-05,1.855604969598023e-05,Unknown
0.15888461999999848,2.9898544424183386e-05,5.6731686171059004e-06,3.010295981766106e-05,4.049113791610584e-06,3.2407719709680324e-05,1.8561837762333505e-05,Unknown
0.15940384999999857,2.983655389321133e-05,5.678523223455086e-06,3.037523641832749e-05,4.060560677302623e-06,3.2384859233902446e-05,1.8581160679542507e-05,Unknown
0.15992307999999866,2.982460992470528e-05,5.680473283159811e-06,3.07595439116151e-05,4.065061691819485e-06,3.2392984749129995e-05,1.8608089661703523e-05,Unknown
0.16044230999999876,2.984914260899413e-05,5.680333213538905e-06,3.130596605877776e-05,4.067298681548568e-06,3.242225881886806e-05,1.8627503989002787e-05,Unknown
0.16096153999999885,2.9858106300041077e-05,5.678132144491304e-06,3.204371228853416e-05,4.072542515194851e-06,3.24456967487492e-05,1.8632936783681223e-05,Unknown
0.16148076999999894,2.9859078528136403e-05,5.6779207829433225e-06,3.29422595051991e-05,4.082696540676216e-06,3.238858593613563e-05,1.863056600180964e-05,Unknown
0.16199999999999903,2.984623202738286e-05,5.684408452923814e-06,3.39386920404983e-05,4.0962235902260325e-06,3.2281529788746135e-05,1.862827883633981e-05,Unknown
0.16251922999999913,2.980444386524467e-05,5.693105465302181e-06,3.4994290985167884e-05,4.111882520713152e-06,3.22210805356065e-05,1.862793832741365e-05,Unknown
0.16303845999999922,2.9766211264104588e-05,5.699388761629545e-06,3.609880647841194e-05,4.130859663089515e-06,3.219374141654169e-05,1.862812534577493e-05,Unknown
0.1635576899999993,2.974846791015174e-05,5.704970318548538e-06,3.7218984445671725e-05,4.154212364413367e-06,3.215057249258351e-05,1.8628214713318365e-05,Unknown
0.1640769199999994,2.976533823599153e-05,5.7123745780984e-06,3.827411842471607e-05,4.17644054514443e-06,3.205287202325453e-05,1.8626021402702508e-05,Unknown
0.1645961499999995,2.984935198529124e-05,5.720762959524472e-06,3.919076788519876e-05,4.188759034398263e-06,3.188869963733822e-05,1.862148008000304e-05,Unknown
0.1651153799999996,2.993598242521281e-05,5.724110002636436e-06,3.996246211006463e-05,4.1922947258344265e-06,3.173914742546459e-05,1.8628812885685862e-05,Unknown
0.16563461999999873,2.9911332561934637e-05,5.717732321870403e-06,4.062909438357375e-05,4.19404258873828e-06,3.164709585033509e-05,1.866839284990633e-05,Unknown
0.16615384999999883,2.979154366322087e-05,5.706934207773444e-06,4.121394266114645e-05,4.198041251890641e-06,3.158416952949084e-05,1.873417638278841e-05,Unknown
0.16667307999999892,2.9668414081441937e-05,5.699501249953239e-06,4.170222346379677e-05,4.202567216450377e-06,3.1597055965570675e-05,1.87933867423476e-05,Unknown
0.167192309999999,2.959965352712144e-05,5.695268045732191e-06,4.20769593933982e-05,4.202810204739819e-06,3.169002398514629e-05,1.883082560747307e-05,Unknown
0.1677115399999991,2.9591998376690028e-05,5.686969491363681e-06,4.2347798335377846e-05,4.202991728502029e-06,3.174313998027441e-05,1.886182234074784e-05,Unknown
0.1682307699999992,2.9580621150944554e-05,5.665467390586163e-06,4.253800589805675e-05,4.202456119596643e-06,3.173558048778188e-05,1.891262323754263e-05,Unknown
0.1687499999999993,2.954819781413045e-05,5.6321409646007045e-06,4.26639914923415e-05,4.183364524301915e-06,3.171914047704418e-05,1.901099392641409e-05,Unknown
0.16926922999999938,2.955555443661641e-05,5.601617984334099e-06,4.27330377976782e-05,4.148403027319381e-06,3.173688005681927e-05,1.9144817464269204e-05,Unknown
0.16978845999999947,2.957589353454541e-05,5.581713622808214e-06,4.27565766579542e-05,4.123372609838258e-06,3.184390896658846e-05,1.924250476617033e-05,Unknown
0.17030768999999957,2.956816514338933e-05,5.56700489101215e-06,4.275816447512528e-05,4.112935675044767e-06,3.190890928546881e-05,1.925984656301405e-05,Unknown
0.17082691999999966,2.956711925434052e-05,5.553358880674967e-06,4.276108504306176e-05,4.109941035231831e-06,3.179235723171301e-05,1.9242612112562856e-05,Unknown
0.17134614999999975,2.9562251214998852e-05,5.5433236990299626e-06,4.277511203832204e-05,4.108634784771591e-06,3.1628572011462206e-05,1.926546625238208e-05,Unknown
0.17186537999999985,2.95537753145298e-05,5.539380202706506e-06,4.28014743897863e-05,4.101077866639732e-06,3.15304580988303e-05,1.934819932457712e-05,Unknown
0.172384619999999,2.955343599253142e-05,5.538935547551398e-06,4.284344221297275e-05,4.095756620800946e-06,3.147399907850288e-05,1.944351102672673e-05,Unknown
0.17290384999999908,2.952224647618262e-05,5.539194323223597e-06,4.2907920456953713e-05,4.096770888634042e-06,3.145194658249494e-05,1.9490655055909616e-05,Unknown
0.17342307999999917,2.953132738077149e-05,5.5398643112990745e-06,4.299851061079358e-05,4.096645738877766e-06,3.141215494307743e-05,1.9484357394847625e-05,Unknown
0.17394230999999927,2.9666757699106745e-05,5.540388114748072e-06,4.311232880239624e-05,4.103590540051739e-06,3.1336266201622404e-05,1.9467805106610884e-05,Unknown
0.17446153999999936,2.986867865587685e-05,5.540201314379319e-06,4.3248626708825775e-05,4.120381164484476e-06,3.129372437187865e-05,1.944317892062852e-05,Unknown
0.17498076999999945,3.005943167633866e-05,5.539113564793097e-06,4.341426434328349e-05,4.136448006022559e-06,3.1297364734520895e-05,1.9383326621831538e-05,Unknown
0.17549999999999955,3.021082669664237e-05,5.538810694350685e-06,4.361439210591517e-05,4.150225286615862e-06,3.132469061051664e-05,1.9317458117478992e-05,Unknown
0.17601922999999964,3.0319856571674124e-05,5.541329218142106e-06,4.383880053342247e-05,4.164393266299415e-06,3.1363427148836766e-05,1.928857818354528e-05,Unknown
0.17653845999999973,3.0368495131082145e-05,5.543797732093064e-06,4.406336909453932e-05,4.1771841802665945e-06,3.137873411940305e-05,1.930339526868981e-05,Unknown
0.17705768999999982,3.029946144840045e-05,5.544152680490397e-06,4.426869132814744e-05,4.185453260905317e-06,3.136582224326241e-05,1.934077826091436e-05,Unknown
0.17757691999999814,3.007001645206356e-05,5.541721310851378e-06,4.445235507351433e-05,4.189475950608824e-06,3.137812362223062e-05,1.9344738394712338e-05,Unknown
0.17809614999999823,2.969866938498993e-05,5.534837998403484e-06,4.46230059086866e-05,4.192150965447275e-06,3.146073314525806e-05,1.932004873429656e-05,Unknown
0.17861537999999832,2.9230826587469888e-05,5.526604099803664e-06,4.4789199143460864e-05,4.196070784049769e-06,3.166226605462081e-05,1.9332045783417737e-05,Unknown
0.17913461999999925,2.8733016902445695e-05,5.520308640720604e-06,4.495499529972436e-05,4.201845790316306e-06,3.194752963471169e-05,1.9306076032588623e-05,Unknown
0.17965384999999934,2.8327747850993777e-05,5.515927776856759e-06,4.512189893801929e-05,4.2084222962884586e-06,3.2138934759220985e-05,1.913198347381536e-05,Unknown
0.18017307999999943,2.808994761641748e-05,5.5137133013293655e-06,4.5291528929778384e-05,4.214189187715879e-06,3.218200001335441e-05,1.8890833828391533e-05,Unknown
0.18069230999999952,2.796314921610108e-05,5.512488434221909e-06,4.546373845836828e-05,4.218367872745129e-06,3.2182464892074684e-05,1.870004121217185e-05,Unknown
0.18121153999999962,2.7872557805377965e-05,5.508591368213489e-06,4.5630314221780006e-05,4.221691301140706e-06,3.219166317746638e-05,1.8562897284361778e-05,Unknown
0.1817307699999997,2.780862382212764e-05,5.497551776587638e-06,4.577851282392101e-05,4.219010059314387e-06,3.224334438294478e-05,1.8446647412493152e-05,Unknown
0.1822499999999998,2.7817974340501105e-05,5.476145095712141e-06,4.590659542554412e-05,4.203317865450866e-06,3.231417314845283e-05,1.8358693054594748e-05,Unknown
0.18276922999999812,2.7920544195092733e-05,5.445633889039697e-06,4.602883617685737e-05,4.178498344222365e-06,3.23097859404197e-05,1.832628864123367e-05,Unknown
0.1832884599999982,2.803872491679776e-05,5.404622854777035e-06,4.616243761076595e-05,4.154748925564429e-06,3.228234905906984e-05,1.832724548609644e-05,Unknown
0.1838076899999983,2.8115829600459988e-05,5.341673673895586e-06,4.630693224170428e-05,4.138688868916271e-06,3.2310459392721896e-05,1.8302012457941835e-05,Unknown
0.1843269199999984,2.8176475794350397e-05,5.243421067069473e-06,4.643586332355944e-05,4.132989825410171e-06,3.23393994934072e-05,1.817350528785397e-05,Unknown
0.1848461499999985,2.8250565234675422e-05,5.119240085272066e-06,4.652349918552381e-05,4.135707495689962e-06,3.2307242346374225e-05,1.7825198856698577e-05,Unknown
0.18536537999999858,2.837082386972124e-05,5.013289519243994e-06,4.657452805399427e-05,4.139834741292665e-06,3.219124094059325e-05,1.7199828279793164e-05,Unknown
0.1858846199999995,2.8539909592844383e-05,4.957872281337779e-06,4.6611613488350186e-05,4.139758144857407e-06,3.2114173442744465e-05,1.64812663212496e-05,Unknown
0.1864038499999996,2.870416822581233e-05,4.941480465514853e-06,4.665074240323166e-05,4.133787647526644e-06,3.2252368085949825e-05,1.5971341186556363e-05,Unknown
0.1869230799999997,2.88322462984551e-05,4.941981513702246e-06,4.66932451804748e-05,4.12387168997148e-06,3.249974181033022e-05,1.574901534598552e-05,Unknown
0.18744230999999978,2.89225783311125e-05,4.944340516741332e-06,4.673108826481048e-05,4.1161650826536365e-06,3.266052942561327e-05,1.568522872339373e-05,Unknown
0.1879615399999981,2.897265931438568e-05,4.943132875738566e-06,4.675950428629322e-05,4.112884650497536e-06,3.272543788447764e-05,1.567461845535234e-05,Unknown
0.1884807699999982,2.8973225862391387e-05,4.943162053693868e-06,4.677946430792187e-05,4.112176330007341e-06,3.274599947218736e-05,1.568712087448101e-05,Unknown
0.18899999999999828,2.889005465450813e-05,4.944022180052963e-06,4.679150222974685e-05,4.11598639251244e-06,3.276029178372758e-05,1.5712599463854815e-05,Unknown
0.18951922999999837,2.873180359956833e-05,4.941979220219636e-06,4.679534989230187e-05,4.127324321517212e-06,3.275824891719092e-05,1.5726740560375482e-05,Unknown
0.19003845999999847,2.858785850644985e-05,4.936721275235867e-06,4.679432139566652e-05,4.144950920703929e-06,3.270416882163299e-05,1.5722605989188892e-05,Unknown
0.19055768999999856,2.8505784136538408e-05,4.924667466162608e-06,4.6793253014028034e-05,4.163858403599424e-06,3.264468788404928e-05,1.572479040914651e-05,Unknown
0.19107691999999865,2.845030591801337e-05,4.903132159813559e-06,4.679267303014739e-05,4.178074749278809e-06,3.2623681248669905e-05,1.573072756930614e-05,Unknown
0.19159614999999874,2.8402574726520048e-05,4.870164792020206e-06,4.679123253707774e-05,4.184072827860492e-06,3.26039193669045e-05,1.572756393983774e-05,Unknown
0.19211537999999884,2.8363136464963694e-05,4.814543559803663e-06,4.679257793955344e-05,4.1836295766281255e-06,3.2576006981010755e-05,1.5725223303039758e-05,Unknown
0.19263461999999976,2.8326342572732263e-05,4.720857817643104e-06,4.680345849223866e-05,4.18200870425134e-06,3.255472855621003e-05,1.5737431463631074e-05,Unknown
0.19315384999999985,2.82943531514909e-05,4.583076921090921e-06,4.682719031504e-05,4.190127603968533e-06,3.253925522397595e-05,1.5806526134453775e-05,Unknown
0.19367307999999817,2.8238606267422383e-05,4.413211392513181e-06,4.686497973365763e-05,4.207640707095328e-06,3.254795606022732e-05,1.5936481166714475e-05,Unknown
0.19419230999999826,2.815719656129648e-05,4.235735809780528e-06,4.6920608082203566e-05,4.215387120499136e-06,3.2549285168851995e-05,1.6044889658280562e-05,Unknown
0.19471153999999835,2.8116268415259935e-05,4.0684104241224085e-06,4.699894644278873e-05,4.213593315744133e-06,3.2515477344172764e-05,1.609387397485088e-05,Unknown
0.19523076999999844,2.8114607756393845e-05,3.915044162775315e-06,4.709938857897074e-05,4.214725258944604e-06,3.251494057946147e-05,1.611607205498355e-05,Unknown
0.19574999999999854,2.8115052934432083e-05,3.7762148163270008e-06,4.721455275012761e-05,4.216033344584183e-06,3.2504333429121294e-05,1.614064271774713e-05,Unknown
0.19626922999999863,2.812639688701535e-05,3.6638988755804166e-06,4.733602341355478e-05,4.21625393881241e-06,3.241374892268174e-05,1.6174883364279577e-05,Unknown
0.19678845999999872,2.81128249869098e-05,3.599666516937566e-06,4.74569228274501e-05,4.211723839053508e-06,3.2346086418859534e-05,1.6194929071029776e-05,Unknown
0.19730768999999881,2.805889453764316e-05,3.5820488223546112e-06,4.757132757591386e-05,4.194789350376375e-06,3.2335776877689107e-05,1.619291947693845e-05,Unknown
0.1978269199999989,2.8024801430761976e-05,3.584154764342552e-06,4.767706310049071e-05,4.174018210346395e-06,3.2348338241596985e-05,1.6199121560336014e-05,Unknown
0.198346149999999,2.802032732793969e-05,3.585390063162461e-06,4.777798172946877e-05,4.165109882995766e-06,3.239759414346553e-05,1.6218675773976694e-05,Unknown
0.1988653799999991,2.8020322416945318e-05,3.5782153943040137e-06,4.787965150573532e-05,4.169623284183324e-06,3.241121490179617e-05,1.6234790297473338e-05,Unknown
0.19938461999999824,2.802020007788817e-05,3.565470081709369e-06,4.798224272766988e-05,4.174230797298559e-06,3.236647140630259e-05,1.6240341370371522e-05,Unknown
0.19990384999999833,2.802374363677768e-05,3.559852310598892e-06,4.8080258557259445e-05,4.1736376148678975e-06,3.234695646563619e-05,1.621472363014999e-05,Unknown
0.20042307999999842,2.805259022116552e-05,3.572909085895815e-06,4.816816270319304e-05,4.175693434027345e-06,3.235113579665152e-05,1.6142195904124546e-05,Unknown
0.20094230999999851,2.808991567275264e-05,3.6024438242679468e-06,4.824166748309286e-05,4.178239188724908e-06,3.237220393877422e-05,1.6045305485154774e-05,Unknown
0.2014615399999986,2.8090114215662224e-05,3.626778823794713e-06,4.829855661348851e-05,4.176679990991968e-06,3.239932673259821e-05,1.595094109317355e-05,Unknown
0.2019807699999987,2.807921401087656e-05,3.621559341484272e-06,4.834075467889752e-05,4.175148867905428e-06,3.236207060666248e-05,1.5861278890708087e-05,Unknown
0.2024999999999988,2.8104860735295515e-05,3.59076105820716e-06,4.837233525923308e-05,4.173499797041552e-06,3.229778839371779e-05,1.5771929285344092e-05,Unknown
0.20301922999999888,2.814695088339623e-05,3.553694015048463e-06,4.839747903789759e-05,4.171896822182654e-06,3.2275373935656594e-05,1.569724022924209e-05,Unknown
0.20353845999999898,2.817307689375026e-05,3.514714072632411e-06,4.841911430100637e-05,4.173213248284573e-06,3.227623149843962e-05,1.5660376908229734e-05,Unknown
0.20405768999999907,2.8184673678817738e-05,3.4685287170344927e-06,4.843638033741733e-05,4.175743971078166e-06,3.230125489616846e-05,1.5655089776355378e-05,Unknown
0.20457691999999916,2.822017127581646e-05,3.416228038582459e-06,4.8448043156775314e-05,4.177818662840518e-06,3.234517278095494e-05,1.5654451042750952e-05,Unknown
0.20509614999999926,2.832344797565113e-05,3.3772014693003238e-06,4.845735081142069e-05,4.181013439541706e-06,3.236074029219659e-05,1.565218754260672e-05,Unknown
0.20561537999999935,2.843861445243868e-05,3.3677980724878355e-06,4.846815984255008e-05,4.189240358117803e-06,3.2355154754320914e-05,1.5655130276427295e-05,Unknown
0.2061346199999985,2.8488253934070297e-05,3.3723130769859666e-06,4.848101701424009e-05,4.202037893164658e-06,3.235324158913202e-05,1.5659290261036784e-05,Unknown
0.20665384999999858,2.849611436312583e-05,3.364990054652489e-06,4.849182982565199e-05,4.209786046500853e-06,3.236306375434095e-05,1.5660195541441714e-05,Unknown
0.20717307999999868,2.8484221140825284e-05,3.334602867761134e-06,4.849373009677631e-05,4.206602468681213e-06,3.242149594566033e-05,1.566019823397884e-05,Unknown
0.20769230999999877,2.8453122484805437e-05,3.2899343405971312e-06,4.84864352004514e-05,4.199552997601404e-06,3.247528310745887e-05,1.566000968248414e-05,Unknown
0.20821153999999886,2.8429962605837547e-05,3.2519254344246954e-06,4.8476254475215695e-05,4.198367598499429e-06,3.244853700109639e-05,1.565921193572749e-05,Unknown
0.20873076999999896,2.841584611951585e-05,3.229699705294351e-06,4.846538328835244e-05,4.206142539531532e-06,3.244194104672633e-05,1.565634568319868e-05,Unknown
0.20924999999999905,2.84059508073995e-05,3.2179027662486662e-06,4.845242596421077e-05,4.220633587989298e-06,3.2482496998120784e-05,1.565168386174793e-05,Unknown
0.20976922999999914,2.839506070736341e-05,3.21102455554834e-06,4.843739161456568e-05,4.2392576590267375e-06,3.2476441260745735e-05,1.565135450893038e-05,Unknown
0.21028845999999923,2.8366768336868845e-05,3.2094015135456807e-06,4.842090726230944e-05,4.263816285793195e-06,3.238208852949292e-05,1.5655620806584604e-05,Unknown
0.21080768999999933,2.834510796693958e-05,3.219919351594245e-06,4.840507944291794e-05,4.299331011213082e-06,3.205538376113102e-05,1.5657978212413313e-05,Unknown
0.21132691999999942,2.835581117044315e-05,3.2501807362651288e-06,4.839294434591088e-05,4.344908611032542e-06,3.156590995027415e-05,1.5657948343848877e-05,Unknown
0.2118461499999995,2.839643524936144e-05,3.28406908425609e-06,4.838558958088209e-05,4.3862603934976535e-06,3.1332509407454584e-05,1.5657079806341768e-05,Unknown
0.2123653799999996,2.847661318756082e-05,3.272109713666052e-06,4.838224792090119e-05,4.405334689558297e-06,3.136450865150979e-05,1.565359739607559e-05,Unknown
0.21288461999999875,2.8574891467031936e-05,3.193139892545874e-06,4.838234637356153e-05,4.403884018296514e-06,3.138441938771519e-05,1.5649304780294673e-05,Unknown
0.21340384999999884,2.8644694105403903e-05,3.100648138992785e-06,4.838664089196455e-05,4.404695100140798e-06,3.1391456494787404e-05,1.564770417042708e-05,Unknown
0.21392307999999893,2.868199091284044e-05,3.0503153814490664e-06,4.839619545563944e-05,4.422602219895158e-06,3.1303526660973054e-05,1.5647148044323627e-05,Unknown
0.21444230999999903,2.868076370205988e-05,3.039020634294187e-06,4.840945730391263e-05,4.4412102381908255e-06,3.103792428991129e-05,1.5645992326749736e-05,Unknown
0.21496153999999912,2.862784665379572e-05,3.047689818515605e-06,4.842145506014648e-05,4.440226188106069e-06,3.084813053221832e-05,1.5645375852866584e-05,Unknown
0.2154807699999992,2.8561107532787985e-05,3.0705874103764724e-06,4.842746952000194e-05,4.441732514153701e-06,3.084270888452318e-05,1.5645461695866997e-05,Unknown
0.2159999999999993,2.852193652640179e-05,3.0978457064683688e-06,4.8428279521017367e-05,4.468354415812084e-06,3.0877615199533015e-05,1.564611262239838e-05,Unknown
0.2165192299999994,2.850517395323648e-05,3.114769071432354e-06,4.843122131285832e-05,4.500508289424018e-06,3.0916967879783726e-05,1.564711303160428e-05,Unknown
0.2170384599999995,2.8486094385687666e-05,3.120186751102155e-06,4.844070641630429e-05,4.520397261962231e-06,3.093428428225842e-05,1.5649064799794984e-05,Unknown
0.21755768999999958,2.8440153236461615e-05,3.1249211939270416e-06,4.845256722257005e-05,4.534356881979081e-06,3.093065399563407e-05,1.565538574472697e-05,Unknown
0.21807691999999967,2.8360446261288823e-05,3.131205237715487e-06,4.846298287994285e-05,4.548628317874864e-06,3.091919607363632e-05,1.567251228423583e-05,Unknown
0.21859614999999977,2.8277745694203184e-05,3.132591711485268e-06,4.847267034063291e-05,4.555305264502596e-06,3.082940752734597e-05,1.5698891884151647e-05,Unknown
0.21911537999999986,2.8216808358996767e-05,3.129080090091394e-06,4.8483365807002816e-05,4.5489403268642935e-06,3.078820477499162e-05,1.571873455824534e-05,Unknown
0.219634619999999,2.816964481701347e-05,3.122121875012597e-06,4.849613622943593e-05,4.540538823293671e-06,3.09069208445594e-05,1.5722800946417723e-05,Unknown
0.2201538499999991,2.814338084242703e-05,3.1150041841599645e-06,4.851175014392779e-05,4.5414516342381375e-06,3.1022937982555744e-05,1.571588693170617e-05,Unknown
0.2206730799999992,2.8136097000423765e-05,3.1134616007117173e-06,4.8531832357707065e-05,4.548450045138158e-06,3.1030066908776004e-05,1.5703910740137618e-05,Unknown
0.22119230999999928,2.812022389126448e-05,3.114441191365372e-06,4.85559584300177e-05,4.555522756930804e-06,3.095213839605664e-05,1.5693253046945577e-05,Unknown
0.22171153999999937,2.8097992324051264e-05,3.111759790704739e-06,4.858038505126083e-05,4.560982227246316e-06,3.077700720815828e-05,1.568857823680719e-05,Unknown
0.22223076999999947,2.806299597225617e-05,3.102446808105116e-06,4.859930175458e-05,4.562150167188474e-06,3.045453429843149e-05,1.5687387055521495e-05,Unknown
0.22274999999999956,2.8005406060691545e-05,3.0869699295196263e-06,4.860385158497751e-05,4.560164319657021e-06,2.989048138257126e-05,1.5688835010622705e-05,Unknown
0.22326922999999965,2.7958952253915737e-05,3.075021798469913e-06,4.858998185697814e-05,4.559268993007555e-06,2.91581774869821e-05,1.5699421913924425e-05,Unknown
0.22378845999999974,2.795197624425729e-05,3.0718452480324555e-06,4.856621130765862e-05,4.5595637385647e-06,2.861623254949613e-05,1.5720732952408092e-05,Unknown
0.22430768999999984,2.799085033946419e-05,3.072283649746762e-06,4.854398202274293e-05,4.558226395883388e-06,2.841152155994808e-05,1.5741209020934462e-05,Unknown
0.22482691999999815,2.804750305309508e-05,3.074229030106525e-06,4.85264861959548e-05,4.550926783221561e-06,2.8347786040313447e-05,1.5749827728677366e-05,Unknown
0.22534614999999825,2.808067600920677e-05,3.076205603042792e-06,4.85106002674569e-05,4.535153379600428e-06,2.829066812200729e-05,1.5749895815204325e-05,Unknown
0.22586537999999834,2.8088760188274657e-05,3.0737315286155887e-06,4.849343162321441e-05,4.5155597960238125e-06,2.8247809911447488e-05,1.574837257755224e-05,Unknown
0.22638461999999926,2.8030411263117306e-05,3.0664129583315496e-06,4.847516482002492e-05,4.498770011091528e-06,2.8343318247487197e-05,1.5746187834206683e-05,Unknown
0.22690384999999935,2.7862984880621832e-05,3.060333123823144e-06,4.845793597773802e-05,4.485117793245061e-06,2.8665160740945325e-05,1.575055232914172e-05,Unknown
0.22742307999999944,2.769031247835085e-05,3.0593499250510115e-06,4.844372225372444e-05,4.46923750394663e-06,2.90177339490038e-05,1.5765712986704923e-05,Unknown
0.22794230999999954,2.760839863435596e-05,3.0604596237607816e-06,4.843222526410397e-05,4.444292251689404e-06,2.9202901663683115e-05,1.5775894622615437e-05,Unknown
0.22846153999999963,2.755963221794557e-05,3.0609457199761133e-06,4.842149488796956e-05,4.410433938616556e-06,2.9273195781291992e-05,1.5774575891782912e-05,Unknown
0.22898076999999972,2.7436648507179143e-05,3.062306836805843e-06,4.841355619052393e-05,4.382022160977692e-06,2.9315590289630635e-05,1.5774915337993317e-05,Unknown
0.22949999999999982,2.713039233747911e-05,3.062239045972742e-06,4.841217963161184e-05,4.371062258390844e-06,2.934698398151785e-05,1.577778123256252e-05,Unknown
0.23001922999999813,2.6626544862456767e-05,3.057097603885208e-06,4.841413105041277e-05,4.370649527246653e-06,2.932898605569899e-05,1.5771685544302104e-05,Unknown
0.23053845999999822,2.6071951051370925e-05,3.0561237074870054e-06,4.841270056323427e-05,4.371281210364234e-06,2.91903273384735e-05,1.574834518040804e-05,Unknown
0.23105768999999832,2.560425634614873e-05,3.0654316613028514e-06,4.84071393186343e-05,4.371820615458131e-06,2.8962721850922584e-05,1.5702222207695982e-05,Unknown
0.2315769199999984,2.5289431819618516e-05,3.0761285506156694e-06,4.840246526329262e-05,4.37246693380405e-06,2.8748451841954185e-05,1.5640839348303774e-05,Unknown
0.2320961499999985,2.5201605687082176e-05,3.0819052229522838e-06,4.840108310049425e-05,4.372395592035055e-06,2.8570961799048027e-05,1.5597344700812137e-05,Unknown
0.2326153799999986,2.5248250972344045e-05,3.083756211361051e-06,4.84009961567598e-05,4.36858630092664e-06,2.8424742753342464e-05,1.558769201100435e-05,Unknown
0.23313461999999952,2.5080725241486983e-05,3.079080582049271e-06,4.840105854024886e-05,4.357178247899602e-06,2.830289876089067e-05,1.558775097211836e-05,Unknown
0.2336538499999996,2.4689929849707235e-05,3.062668762714999e-06,4.840119259781846e-05,4.335107005487173e-06,2.820426597781256e-05,1.559745044807417e-05,Unknown
0.2341730799999997,2.4497243371817412e-05,3.046024009113337e-06,4.8401320682512215e-05,4.299970350726607e-06,2.8159532564203064e-05,1.5649113974312524e-05,Unknown
0.2346923099999998,2.4495184749800207e-05,3.043059760412981e-06,4.840143347627494e-05,4.2569758476716304e-06,2.8101872927771304e-05,1.572523062419128e-05,Unknown
0.2352115399999981,2.4459561779138536e-05,3.0447606463960254e-06,4.84014477805672e-05,4.2239468858717215e-06,2.796821851011585e-05,1.5713626134762802e-05,Unknown
0.2357307699999982,2.4436068970062406e-05,3.0424451411505754e-06,4.840120570410164e-05,4.21172642676845e-06,2.788778840318304e-05,1.5514824061629624e-05,Unknown
0.2362499999999983,2.4440355755345884e-05,3.0409567300483886e-06,4.840038826788066e-05,4.210684791460485e-06,2.790948866701096e-05,1.516766336391342e-05,Unknown
0.2367692299999984,2.447538843861309e-05,3.0424675530364724e-06,4.839982776743058e-05,4.209916073804398e-06,2.7929965808948804e-05,1.4811779320402723e-05,Unknown
0.23728845999999848,2.446661629054054e-05,3.043800822316687e-06,4.840008200942739e-05,4.198803160977449e-06,2.792381366224864e-05,1.4588165423707894e-05,Unknown
0.23780768999999857,2.4265286032908424e-05,3.0359322009382448e-06,4.840014383842515e-05,4.169692375060865e-06,2.787991501110546e-05,1.4547219796550042e-05,Unknown
0.23832691999999867,2.395694476766877e-05,3.012730340306212e-06,4.839924924912034e-05,4.138538276911373e-06,2.7869225206107567e-05,1.4590889266250109e-05,Unknown
0.23884614999999876,2.3734547536009865e-05,2.9884285691932783e-06,4.839657298253152e-05,4.122796830261676e-06,2.7992919544998603e-05,1.4561690361432077e-05,Unknown
0.23936537999999885,2.3644786261391687e-05,2.9818827070609e-06,4.8392298616091625e-05,4.118251315165111e-06,2.814235659581412e-05,1.4447607524866462e-05,Unknown
0.23988461999999977,2.36315804590366e-05,2.9936351240381486e-06,4.838903425103564e-05,4.1163302160870015e-06,2.8212458127242465e-05,1.4370710277454815e-05,Unknown
0.24040384999999986,2.364221653751643e-05,3.012241189739105e-06,4.838819165675552e-05,4.115116144961437e-06,2.8102139902031267e-05,1.43598550410019e-05,Unknown
0.24092307999999818,2.3663025150089737e-05,3.0266934194048145e-06,4.838818891289311e-05,4.117618153210413e-06,2.790535921632821e-05,1.43501621194496e-05,Unknown
0.24144230999999827,2.366929303988965e-05,3.033629224571664e-06,4.838730225742391e-05,4.120875409958972e-06,2.7932400919123143e-05,1.4314296645953746e-05,Unknown
0.24196153999999837,2.364329195322284e-05,3.037237271897788e-06,4.838500149952873e-05,4.119601169471188e-06,2.7704442119839384e-05,1.4273032380641227e-05,Unknown
0.24248076999999846,2.363038417157797e-05,3.038788777349806e-06,4.8380936979573066e-05,4.125103277521435e-06,2.684076454936093e-05,1.424917846060951e-05,Unknown
0.24299999999999855,2.366359276888362e-05,3.034752291773103e-06,4.837512885803915e-05,4.139407600690966e-06,2.617469743970451e-05,1.4234198145795544e-05,Unknown
0.24351922999999864,2.3735563153713572e-05,3.028297133779787e-06,4.836920215773242e-05,4.147470518008014e-06,2.6084565730164425e-05,1.4202239517779692e-05,Unknown
0.24403845999999874,2.3817309069778487e-05,3.0302409908644336e-06,4.836535985831173e-05,4.148561671959379e-06,2.6091106204489415e-05,1.4113231288343594e-05,Unknown
0.24455768999999883,2.3843149035547214e-05,3.0396401203403983e-06,4.8363967478140784e-05,4.148556475711813e-06,2.6088595691768805e-05,1.3963712421954214e-05,Unknown
0.24507691999999892,2.3796985080965045e-05,3.047997787924897e-06,4.836401892723289e-05,4.149570273656989e-06,2.6114725584392812e-05,1.384155829588899e-05,Unknown
0.245596149999999,2.373876527638716e-05,3.058638345426584e-06,4.83646729880252e-05,4.155672548254682e-06,2.608692337437101e-05,1.3804866478234996e-05,Unknown
0.2461153799999991,2.369155221080252e-05,3.0720657133288125e-06,4.836435615280621e-05,4.167525430901528e-06,2.603994201682096e-05,1.3810609108394094e-05,Unknown
0.24663461999999825,2.363540276178888e-05,3.0798466100376502e-06,4.836026157332372e-05,4.178676574970584e-06,2.6002495287209272e-05,1.381797922812729e-05,Unknown
0.24715384999999834,2.3579633286344117e-05,3.074468261234624e-06,4.835355443928645e-05,4.183887283308412e-06,2.5948234743019503e-05,1.3825495440879585e-05,Unknown
0.24767307999999844,2.3531689251161383e-05,3.0600255817873305e-06,4.835064479228477e-05,4.184375416859679e-06,2.5941500788346973e-05,1.384606632483919e-05,Unknown
0.24819230999999853,2.348277132847536e-05,3.0505152974503485e-06,4.8352307663876906e-05,4.182801815328052e-06,2.5993578442456528e-05,1.3892545414843242e-05,Unknown
0.24871153999999862,2.3455783366569683e-05,3.0474747584145936e-06,4.8353612698307714e-05,4.18682758390457e-06,2.6005906815623316e-05,1.3945671138696292e-05,Unknown
0.2492307699999987,2.344628213693364e-05,3.045683620314259e-06,4.835613667553264e-05,4.208424582209386e-06,2.6001304125038582e-05,1.3970891755109583e-05,Unknown
0.2497499999999988,2.343952322808273e-05,3.0464231326938494e-06,4.836567767800542e-05,4.243050122128662e-06,2.599278485262325e-05,1.3968385591531163e-05,Unknown
0.2502692299999989,2.343748562502853e-05,3.048184963795479e-06,4.838073328571197e-05,4.275130457659393e-06,2.5960699930211973e-05,1.3965086215782192e-05,Unknown
0.250788459999999,2.3383662081058512e-05,3.0470148273275268e-06,4.838540337252935e-05,4.302843220957007e-06,2.600773152791206e-05,1.397846370335274e-05,Unknown
0.2513076899999991,2.3298823428872213e-05,3.0467134153139075e-06,4.835735683822196e-05,4.329796416031477e-06,2.607414787260749e-05,1.4010409233069191e-05,Unknown
0.2518269199999992,2.329081937183774e-05,3.04948656938225e-06,4.829008229474431e-05,4.360736837073449e-06,2.6045353761985667e-05,1.4055430710799176e-05,Unknown
0.25234614999999927,2.333329138349148e-05,3.0525924589390586e-06,4.819827765030363e-05,4.401237911858767e-06,2.6024114347504e-05,1.4099501681805006e-05,Unknown
0.25286537999999936,2.335433497369457e-05,3.0556997678896856e-06,4.81061899008928e-05,4.441680212863071e-06,2.602851823573221e-05,1.4126303868497544e-05,Unknown
0.2533846199999985,2.3352685558775868e-05,3.0543940703059e-06,4.803684460510699e-05,4.475809924979598e-06,2.6023576373013558e-05,1.4132892460412729e-05,Unknown
0.2539038499999986,2.3332372656361915e-05,3.0479349547301437e-06,4.799790828109427e-05,4.519325291914042e-06,2.604788273275869e-05,1.4127683332417593e-05,Unknown
0.2544230799999987,2.333425653370621e-05,3.0450381980143237e-06,4.797826012121027e-05,4.596179084754876e-06,2.601802419936548e-05,1.4118988337287133e-05,Unknown
0.2549423099999988,2.3392763931889585e-05,3.045775705940694e-06,4.796446589109945e-05,4.687899167184046e-06,2.5951369664158736e-05,1.4114054928540195e-05,Unknown
0.2554615399999989,2.347015922716824e-05,3.045784181482531e-06,4.794983664537012e-05,4.729623909952011e-06,2.597736945430692e-05,1.4114538471832564e-05,Unknown
0.25598076999999897,2.3529907382484198e-05,3.0476663004640544e-06,4.792361910390404e-05,4.729774524189581e-06,2.603120065171466e-05,1.4111972936872468e-05,Unknown
0.25649999999999906,2.355460665162424e-05,3.0483716101370123e-06,4.786327666106445e-05,4.748163274568117e-06,2.606062035937721e-05,1.4097569828170236e-05,Unknown
0.25701922999999915,2.3551742976625995e-05,3.045629486391758e-06,4.774879897518648e-05,4.779661128627617e-06,2.610884983075813e-05,1.4076449238886565e-05,Unknown
0.25753845999999925,2.355963281233385e-05,3.044436384516068e-06,4.758582897427596e-05,4.800347542101776e-06,2.6141909248993987e-05,1.4062728139784572e-05,Unknown
0.25805768999999934,2.3552102315822207e-05,3.0471002707204277e-06,4.7406500414709975e-05,4.813055785652997e-06,2.6140091146182423e-05,1.4055189976709536e-05,Unknown
0.25857691999999943,2.3464998312335597e-05,3.056194282620772e-06,4.724291009665087e-05,4.825722062989287e-06,2.6139580841046693e-05,1.4039515575624054e-05,Unknown
0.2590961499999995,2.3328989931342317e-05,3.079514219384745e-06,4.710387050151608e-05,4.839409458789996e-06,2.616131766050541e-05,1.4012305150048515e-05,Unknown
0.2596153799999996,2.3183258420009788e-05,3.130784807221172e-06,4.697772581740382e-05,4.846938143835207e-06,2.6275331514494135e-05,1.3988131935037813e-05,Unknown
0.26013461999999876,2.3013991026288087e-05,3.213171502465623e-06,4.6850815876528704e-05,4.843677452269278e-06,2.6474769993972443e-05,1.398056145475224e-05,Unknown
0.26065384999999885,2.287084925954293e-05,3.2894295704978344e-06,4.672291053482485e-05,4.837907733473582e-06,2.6585053909202488e-05,1.3983369715387093e-05,Unknown
0.26117307999999895,2.2795236988889943e-05,3.315338876141131e-06,4.661112113289794e-05,4.8396688842465135e-06,2.657417584689836e-05,1.3986935302274364e-05,Unknown
0.26169230999999904,2.2743648916518765e-05,3.3135154160883148e-06,4.653661513350577e-05,4.847490726230927e-06,2.654952450891179e-05,1.3991885765489095e-05,Unknown
0.26221153999999913,2.269041378651488e-05,3.330574291327564e-06,4.650297637707568e-05,4.854944443727289e-06,2.653335179774373e-05,1.4006771743173052e-05,Unknown
0.2627307699999992,2.2635927961980236e-05,3.35935843375638e-06,4.649366527001829e-05,4.854406732721838e-06,2.6537506367015308e-05,1.4041679947062628e-05,Unknown
0.2632499999999993,2.2601645106789737e-05,3.377258536078408e-06,4.649174195490064e-05,4.838099327046782e-06,2.65082113806474e-05,1.408109856635459e-05,Unknown
0.2637692299999994,2.26096839299643e-05,3.385043875869871e-06,4.649137519074943e-05,4.812334568037756e-06,2.64022771752016e-05,1.4095179163712056e-05,Unknown
0.2642884599999995,2.2610465075741728e-05,3.3908824415983726e-06,4.649165223104285e-05,4.791299826189247e-06,2.635444100373165e-05,1.409392273234423e-05,Unknown
0.2648076899999996,2.258802868771743e-05,3.399975838789044e-06,4.649108856481135e-05,4.776143212747396e-06,2.639175962220845e-05,1.4108504174672266e-05,Unknown
0.2653269199999997,2.259391789021791e-05,3.412329955778073e-06,4.648586778336329e-05,4.756990587618255e-06,2.6411444822463943e-05,1.413621884786259e-05,Unknown
0.2658461499999998,2.260609191493184e-05,3.4239897777912315e-06,4.646629665501098e-05,4.723715410987064e-06,2.639940254567534e-05,1.4156520932453203e-05,Unknown
0.2663653799999981,2.259395830185077e-05,3.4357657316043285e-06,4.642307823081437e-05,4.679062938551088e-06,2.635226353458257e-05,1.4165258066905858e-05,Unknown
0.266884619999999,2.2589656627725988e-05,3.4474348018520022e-06,4.635400130849799e-05,4.641123180667641e-06,2.6360200720846653e-05,1.4168210815020187e-05,Unknown
0.2674038499999991,2.2589819267518985e-05,3.453523458773096e-06,4.625130848408814e-05,4.620511293116684e-06,2.6521707599221932e-05,1.416873971735666e-05,Unknown
0.2679230799999992,2.2594515561655915e-05,3.4545258424932824e-06,4.6096779486948506e-05,4.6108554024562585e-06,2.668658775501957e-05,1.4165819081527576e-05,Unknown
0.2684423099999993,2.2630057719100185e-05,3.454274466189442e-06,4.587481450518983e-05,4.602551160898108e-06,2.6747343635131265e-05,1.4149434587135992e-05,Unknown
0.2689615399999994,2.267746601423166e-05,3.4579887347152755e-06,4.558178773364461e-05,4.589906146371893e-06,2.678584918018577e-05,1.4122746651198656e-05,Unknown
0.2694807699999995,2.2710540534583213e-05,3.474481763779695e-06,4.5224878720517146e-05,4.573785349364533e-06,2.684767436769397e-05,1.4114313817365358e-05,Unknown
0.2699999999999996,2.270691991107823e-05,3.498090657050728e-06,4.4810752367416936e-05,4.561037444482351e-06,2.691962613522622e-05,1.4108349430920234e-05,Unknown
0.27051922999999967,2.2662218462844187e-05,3.5104765115458603e-06,4.434167503198998e-05,4.555403157262471e-06,2.6951140225531023e-05,1.4039926314159382e-05,Unknown
0.27103845999999976,2.261860352556775e-05,3.5107374132711304e-06,4.3829636028112505e-05,4.554351573517916e-06,2.6875156481819628e-05,1.3908343006832704e-05,Unknown
0.27155768999999985,2.259863020279784e-05,3.51583968528661e-06,4.3305228369114776e-05,4.5545454083900135e-06,2.671611764211273e-05,1.37780851002915e-05,Unknown
0.27207691999999817,2.2592989241478677e-05,3.5364221617506893e-06,4.279940056843538e-05,4.554618303498939e-06,2.656607853660994e-05,1.3671974040511366e-05,Unknown
0.27259614999999826,2.2596391851846183e-05,3.565434919397785e-06,4.232026104167453e-05,4.554150203180439e-06,2.6435597663109328e-05,1.353939155102492e-05,Unknown
0.27311537999999835,2.2586573132171683e-05,3.5860348016973207e-06,4.1858315806164624e-05,4.5527095637749815e-06,2.633035808509111e-05,1.3319329077860669e-05,Unknown
0.2736346199999993,2.2519514141671128e-05,3.591363056765044e-06,4.141677593230154e-05,4.549371663128298e-06,2.6278121236561512e-05,1.3078966005704474e-05,Unknown
0.27415384999999937,2.2357985667685827e-05,3.5908351743112e-06,4.103018570473959e-05,4.541531197878661e-06,2.6205749627684844e-05,1.3020670724349027e-05,Unknown
0.27467307999999946,2.2063859260883686e-05,3.5943718988449863e-06,4.073322860335014e-05,4.524137330916905e-06,2.6066147010727004e-05,1.313460984524452e-05,Unknown
0.27519230999999955,2.166031943092965e-05,3.6029829068908378e-06,4.051907560018134e-05,4.495920630163017e-06,2.588710174609805e-05,1.310223930681002e-05,Unknown
0.27571153999999964,2.129565525984965e-05,3.6138456732928943e-06,4.03506367406532e-05,4.46958753554626e-06,2.5716543372561222e-05,1.2805443815775634e-05,Unknown
0.27623076999999974,2.1070236074994653e-05,3.623876358206112e-06,4.019645648301514e-05,4.458885822350621e-06,2.567691755076659e-05,1.2496511193337572e-05,Unknown
0.27674999999999983,2.094474155123373e-05,3.630773501723841e-06,4.004692223982499e-05,4.458188496533406e-06,2.5763247154146504e-05,1.234965943195671e-05,Unknown
0.27726922999999815,2.0859063712163405e-05,3.6339392585396527e-06,3.990704785773506e-05,4.458710255637378e-06,2.5818930905682843e-05,1.2303354522231447e-05,Unknown
0.27778845999999824,2.077796918602484e-05,3.630980022185765e-06,3.978098978582949e-05,4.455758753236345e-06,2.5822714919194904e-05,1.2300059149199631e-05,Unknown
0.27830768999999833,2.0720504789237985e-05,3.620270994173271e-06,3.966864419170752e-05,4.44090489404475e-06,2.5813614501980217e-05,1.2303610967877804e-05,Unknown
0.2788269199999984,2.0710961348030312e-05,3.6053081296603128e-06,3.957324718230412e-05,4.42153019094953e-06,2.580646889525489e-05,1.2312869055121928e-05,Unknown
0.2793461499999985,2.0713124265511357e-05,3.5886974618893347e-06,3.950406383354687e-05,4.412674429613935e-06,2.581908004366475e-05,1.2466827821412036e-05,Unknown
0.2798653799999986,2.071426139710774e-05,3.571599791034634e-06,3.9468306200623066e-05,4.412530720290968e-06,2.577660626674473e-05,1.2797758333897863e-05,Unknown
0.28038461999999953,2.07226608782924e-05,3.5567562760363023e-06,3.946243261630609e-05,4.4142715517348105e-06,2.566390644944659e-05,1.3056898605343224e-05,Unknown
0.2809038499999996,2.0732308118239335e-05,3.543836233135796e-06,3.947197614223446e-05,4.416196887805048e-06,2.558718690530601e-05,1.3105971701974578e-05,Unknown
0.2814230799999997,2.0728089054955988e-05,3.5297478644800693e-06,3.94799029416721e-05,4.418226433845238e-06,2.556255240630166e-05,1.3118012936673926e-05,Unknown
0.2819423099999998,2.0633859363812584e-05,3.514961230024224e-06,3.9475422968275554e-05,4.420348143413915e-06,2.5541568309458438e-05,1.3227909587474048e-05,Unknown
0.2824615399999981,2.042896859663072e-05,3.5024925365673587e-06,3.945188791417116e-05,4.422111780439307e-06,2.548134846471113e-05,1.335162953863458e-05,Unknown
0.2829807699999982,2.0249100078684203e-05,3.4975219744203395e-06,3.9399003506531735e-05,4.420580562907842e-06,2.5359177751081377e-05,1.3402859414137211e-05,Unknown
0.2834999999999983,2.0182730947997077e-05,3.49814032958777e-06,3.930334249844832e-05,4.412040469206261e-06,2.5239854714191875e-05,1.340576056058414e-05,Unknown
0.2840192299999984,2.018509094637652e-05,3.4933016957921143e-06,3.915511222343832e-05,4.39938153794103e-06,2.518461608123724e-05,1.3403421590779162e-05,Unknown
0.2845384599999985,2.0208497102497244e-05,3.4856449759961386e-06,3.894398786048032e-05,4.390367308688274e-06,2.5184921436989137e-05,1.3395436154679638e-05,Unknown
0.2850576899999986,2.0212136173929052e-05,3.4832370869562227e-06,3.864261953478284e-05,4.38720344493393e-06,2.523131582814457e-05,1.3371955231883964e-05,Unknown
0.2855769199999987,2.018125367459448e-05,3.484316149185485e-06,3.820277622767861e-05,4.386215685896407e-06,2.527650263409765e-05,1.334499067590566e-05,Unknown
0.2860961499999988,2.016006525303968e-05,3.486087618271798e-06,3.758426160192476e-05,4.383240161726428e-06,2.523969552638539e-05,1.3342045622392534e-05,Unknown
0.28661537999999886,2.015802155899888e-05,3.481447711371222e-06,3.679274448132804e-05,4.374423883532501e-06,2.516424458236132e-05,1.3394687187866248e-05,Unknown
0.2871346199999998,2.0171169857173564e-05,3.467479050078948e-06,3.586827445391165e-05,4.36009088708587e-06,2.510875398952424e-05,1.351901058552043e-05,Unknown
0.2876538499999981,2.0228525964525036e-05,3.4564703457633043e-06,3.483355028927101e-05,4.343684965152676e-06,2.506676596260093e-05,1.3690191387052514e-05,Unknown
0.2881730799999982,2.0299317044211888e-05,3.4535245260739336e-06,3.3682792751717414e-05,4.324915295407564e-06,2.511123195396972e-05,1.3855004117112684e-05,Unknown
0.2886923099999983,2.0334988984638537e-05,3.448826690717081e-06,3.243599304557047e-05,4.301494907396502e-06,2.5217594034853584e-05,1.3982712862606433e-05,Unknown
0.2892115399999984,2.0309235983294125e-05,3.4371082347379462e-06,3.117900767660805e-05,4.277365930984429e-06,2.5255646215494857e-05,1.4083037866933492e-05,Unknown
0.28973076999999847,2.017915021666145e-05,3.422337274121477e-06,3.0011950508587672e-05,4.261353576140886e-06,2.525472488351384e-05,1.4173710938848409e-05,Unknown
0.29024999999999856,2.0029084331215928e-05,3.4113799764336007e-06,2.896981650102961e-05,4.254105955397144e-06,2.52517414074962e-05,1.424239582689835e-05,Unknown
0.29076922999999866,2.0000503543536635e-05,3.408760461843263e-06,2.802649030749444e-05,4.249618528101181e-06,2.524920323742516e-05,1.425151648960736e-05,Unknown
0.29128845999999875,2.0030116365166045e-05,3.4129488237039307e-06,2.71636510890875e-05,4.243885685969393e-06,2.529779314629812e-05,1.4200682295671316e-05,Unknown
0.29180768999999884,2.0022094334084742e-05,3.4221578438507863e-06,2.641137461222776e-05,4.238508206881943e-06,2.528779953478155e-05,1.414057219898532e-05,Unknown
0.29232691999999894,2.0010503693452063e-05,3.4429937665577525e-06,2.5811527088726307e-05,4.237726238211315e-06,2.5166225537145576e-05,1.4103066525643242e-05,Unknown
0.29284614999999903,2.0009590453501703e-05,3.4835481600200564e-06,2.5365916674704983e-05,4.235798821642975e-06,2.510300638160492e-05,1.4071631261512294e-05,Unknown
0.2933653799999991,2.001473493888339e-05,3.53338362116634e-06,2.504698303550196e-05,4.2272855364599e-06,2.5104438300349345e-05,1.4005478038714804e-05,Unknown
0.29388461999999826,2.002572994796845e-05,3.569053157262897e-06,2.4835006911113868e-05,4.220960984086148e-06,2.510312324194938e-05,1.3866937562937243e-05,Unknown
0.29440384999999836,2.001229014946001e-05,3.5815190687292654e-06,2.4721557679911358e-05,4.220598230465847e-06,2.507494752719804e-05,1.3680955749493988e-05,Unknown
0.29492307999999845,1.998937093478496e-05,3.5803452052640543e-06,2.468552803212017e-05,4.220649285507931e-06,2.489010945770587e-05,1.354606464939768e-05,Unknown
0.29544230999999854,1.9985588499113654e-05,3.5777176481019228e-06,2.468491728059887e-05,4.2212838593400114e-06,2.464882969667412e-05,1.3511652943060673e-05,Unknown
0.29596153999999864,1.99845189592718e-05,3.577063278468829e-06,2.4680455628675177e-05,4.220361401696191e-06,2.458288366283303e-05,1.3512175191682154e-05,Unknown
0.29648076999999873,1.9983291154835303e-05,3.577065843875144e-06,2.4656221782980303e-05,4.216706972638549e-06,2.463474018834563e-05,1.3462134777151923e-05,Unknown
0.2969999999999988,1.9983369628491977e-05,3.5780780635810238e-06,2.461029496728112e-05,4.216978989633416e-06,2.4719005967972056e-05,1.3341949661886305e-05,Unknown
0.2975192299999989,1.9985745541710378e-05,3.583978485583016e-06,2.4536822297049476e-05,4.219273919640658e-06,2.483350716616641e-05,1.3208813262791366e-05,Unknown
0.298038459999999,1.998492519353807e-05,3.598853325393744e-06,2.442395459448865e-05,4.22107581642307e-06,2.4891744400306264e-05,1.3145714589713256e-05,Unknown
0.2985576899999991,1.990044057302712e-05,3.617689038583565e-06,2.4265432274583057e-05,4.2251266612365725e-06,2.4883630438415816e-05,1.3150032180814872e-05,Unknown
0.2990769199999992,1.9674692823034964e-05,3.630056207653944e-06,2.4064836591845524e-05,4.223354852685755e-06,2.489804044994181e-05,1.3138125724484646e-05,Unknown
0.2995961499999993,1.938598766169314e-05,3.634347587580575e-06,2.3820901481808854e-05,4.210877458710634e-06,2.4961605786435663e-05,1.3104946829741337e-05,Unknown
0.3001153799999994,1.911747783143856e-05,3.631776813391932e-06,2.351779112787029e-05,4.196511235606304e-06,2.5109112896021063e-05,1.3101087516819645e-05,Unknown
0.3006346199999985,1.8887230125432616e-05,3.6224878758685855e-06,2.3142322307751492e-05,4.186391119306598e-06,2.52909573099239e-05,1.3087488624975728e-05,Unknown
0.3011538499999986,1.8712801656917165e-05,3.614797536494029e-06,2.2713513216627667e-05,4.1799662760868055e-06,2.5340468230225705e-05,1.3018882988764698e-05,Unknown
0.3016730799999987,1.8597089804690785e-05,3.613905488520672e-06,2.2282047248648947e-05,4.177408813759156e-06,2.5266005649805176e-05,1.2936132340473208e-05,Unknown
0.3021923099999988,1.853816905625594e-05,3.615308719510425e-06,2.189025083322537e-05,4.180769185299012e-06,2.5194064772092583e-05,1.287929678449283e-05,Unknown
0.3027115399999989,1.850429718190867e-05,3.616004821137092e-06,2.1542772360330303e-05,4.189451697099601e-06,2.513974712955398e-05,1.2842924782886332e-05,Unknown
0.303230769999999,1.838718705842586e-05,3.6162534326133616e-06,2.1215664826684487e-05,4.200424935150131e-06,2.507597658764562e-05,1.2812415793456322e-05,Unknown
0.3037499999999991,1.819110708078136e-05,3.616755063905079e-06,2.0883145524491752e-05,4.211000350045324e-06,2.4878634388628917e-05,1.2785803137351365e-05,Unknown
0.30426922999999917,1.8073943187113834e-05,3.6186550205745938e-06,2.0535926057298003e-05,4.2214728853982215e-06,2.4497720357040097e-05,1.2774103621702685e-05,Unknown
0.30478845999999926,1.8062953968221394e-05,3.62092909224135e-06,2.0174916156869583e-05,4.234586290097305e-06,2.4225366023276025e-05,1.2785200519373098e-05,Unknown
0.30530768999999935,1.8085568069542128e-05,3.620234164938881e-06,1.979845691063044e-05,4.250991988001888e-06,2.4197705582124265e-05,1.2809286045553232e-05,Unknown
0.30582691999999945,1.814538043941315e-05,3.6166993659362142e-06,1.94072494951232e-05,4.268037977588447e-06,2.421888384599122e-05,1.2827771815406224e-05,Unknown
0.30634614999999954,1.820984825125606e-05,3.613240186224923e-06,1.901497333166078e-05,4.282105275547328e-06,2.420727989417217e-05,1.2833417512629848e-05,Unknown
0.30686537999999963,1.8220058077975343e-05,3.610727709722837e-06,1.864554152443633e-05,4.296199079363853e-06,2.4131821631933026e-05,1.2835207693016277e-05,Unknown
0.3073846199999988,1.8155184317608788e-05,3.6086856562486536e-06,1.8305759991648676e-05,4.318541955176475e-06,2.4026931649143232e-05,1.2846518179363484e-05,Unknown
0.30790384999999887,1.8000203381473972e-05,3.6068013376066e-06,1.7965734659863707e-05,4.353048181595453e-06,2.4066627954163924e-05,1.2875102297844528e-05,Unknown
0.30842307999999896,1.7829843193813492e-05,3.605946008564373e-06,1.7588305545126748e-05,4.397462621406408e-06,2.418184794245434e-05,1.2914247740213412e-05,Unknown
0.30894230999999905,1.7735237243926048e-05,3.60623949709058e-06,1.717907401878239e-05,4.431119020944037e-06,2.4200927359478744e-05,1.2943880376132897e-05,Unknown
0.30946153999999915,1.7679351799532103e-05,3.605146897546008e-06,1.680841639850202e-05,4.435242717676095e-06,2.4178241867821003e-05,1.2957592055474816e-05,Unknown
0.30998076999999924,1.757846462941897e-05,3.600654356719928e-06,1.6550567608146495e-05,4.443160369653415e-06,2.417442645889441e-05,1.2970317087312864e-05,Unknown
0.31049999999999933,1.7383540880342785e-05,3.5957988083568472e-06,1.640177372102235e-05,4.485785542508817e-06,2.416501108441349e-05,1.3010616087967905e-05,Unknown
0.3110192299999994,1.7113242247711166e-05,3.595002192622308e-06,1.630512955622875e-05,4.534909478864392e-06,2.4075349814278367e-05,1.310346583774636e-05,Unknown
0.3115384599999995,1.6856869923978643e-05,3.593529062090552e-06,1.6212343390929054e-05,4.563904055302093e-06,2.3828990766469165e-05,1.3200278101139042e-05,Unknown
0.3120576899999996,1.6667191562633626e-05,3.587449577369255e-06,1.6110671635469046e-05,4.58031807900885e-06,2.356686567463832e-05,1.3234014413004113e-05,Unknown
0.3125769199999997,1.6525962237618983e-05,3.587472556172679e-06,1.601642192979408e-05,4.59873633697749e-06,2.3475851975775883e-05,1.323283618890494e-05,Unknown
0.3130961499999998,1.643219401984479e-05,3.5964315740464826e-06,1.5938971790683652e-05,4.6283856885496085e-06,2.3462645475317388e-05,1.3223751422765008e-05,Unknown
0.3136153799999981,1.6386549539425716e-05,3.601659087844067e-06,1.5873973428470383e-05,4.672009068223299e-06,2.3432128705614236e-05,1.3225075421762746e-05,Unknown
0.31413461999999903,1.6369582925753564e-05,3.6018138278304182e-06,1.5820139938949433e-05,4.721625657999708e-06,2.3416880690207285e-05,1.3287160627003792e-05,Unknown
0.3146538499999991,1.638080229024254e-05,3.602898700273554e-06,1.5779487994304846e-05,4.766521222754597e-06,2.339682348032692e-05,1.3361210721991556e-05,Unknown
0.3151730799999992,1.6381406621726044e-05,3.605663804832628e-06,1.5754569512578276e-05,4.8045168634607234e-06,2.3390333665147444e-05,1.3378053936723106e-05,Unknown
0.3156923099999993,1.6341094451699884e-05,3.609846757817409e-06,1.574505787534153e-05,4.8435647235886326e-06,2.3373471673844667e-05,1.3369857681301462e-05,Unknown
0.3162115399999994,1.6316533168480148e-05,3.607582556926181e-06,1.57448085620791e-05,4.894017765663331e-06,2.3306524703142318e-05,1.3381395450776286e-05,Unknown
0.3167307699999995,1.6316899049504753e-05,3.592870746472302e-06,1.574740080473137e-05,4.9529616956470005e-06,2.3331966090886344e-05,1.3409483365670946e-05,Unknown
0.3172499999999996,1.6317059471658673e-05,3.5732391071894e-06,1.5739694041908085e-05,5.002677959653733e-06,2.3437536523322683e-05,1.344015267641966e-05,Unknown
0.3177692299999997,1.6320991635401227e-05,3.561735153079208e-06,1.570241787185598e-05,5.0330184888946685e-06,2.3474477711915096e-05,1.3478678111353884e-05,Unknown
0.3182884599999998,1.6287541887366913e-05,3.564393779988248e-06,1.562733185467398e-05,5.048266916830698e-06,2.3471448270650708e-05,1.3509628871574424e-05,Unknown
0.3188076899999981,1.6243006394128093e-05,3.569032022423853e-06,1.5512343835694478e-05,5.065049842241278e-06,2.342713466009954e-05,1.3526495587089687e-05,Unknown
0.3193269199999982,1.6266578145851864e-05,3.569038219568637e-06,1.5345379441280967e-05,5.100590995098354e-06,2.3385706472729456e-05,1.3558455670552614e-05,Unknown
0.3198461499999983,1.631573513667105e-05,3.5719980727948384e-06,1.5110575115722995e-05,5.136670993686476e-06,2.348926475403432e-05,1.3590753344111048e-05,Unknown
0.32036537999999837,1.634372496260366e-05,3.573149515420733e-06,1.481029203029227e-05,5.149785868548176e-06,2.362993498845376e-05,1.3593636927972083e-05,Unknown
0.3208846199999993,1.635890341807517e-05,3.574805220310736e-06,1.4465041790237852e-05,5.15332476944865e-06,2.366044700629929e-05,1.3568685467636424e-05,Unknown
0.3214038499999994,1.637113334571028e-05,3.587414107662332e-06,1.4088853985786998e-05,5.162813572778979e-06,2.3652381733389365e-05,1.3528676286641134e-05,Unknown
0.3219230799999995,1.644175187244297e-05,3.6031591610668496e-06,1.3690669951983778e-05,5.181220975825081e-06,2.3653967036039897e-05,1.3507494781246352e-05,Unknown
0.32244230999999957,1.6575597007765313e-05,3.621851148014453e-06,1.3291361685367576e-05,5.196334892441806e-06,2.3653968736801336e-05,1.351166744103838e-05,Unknown
0.32296153999999966,1.6688749971917553e-05,3.6599548625921536e-06,1.2906326848473838e-05,5.195823576668084e-06,2.364099293243859e-05,1.3507565549342856e-05,Unknown
0.32348076999999975,1.675143395673575e-05,3.719518701312921e-06,1.2527018794593656e-05,5.2022951669954464e-06,2.3565176888741727e-05,1.3490451056763417e-05,Unknown
0.32399999999999984,1.6777756291506833e-05,3.7733294574790873e-06,1.2137226441501078e-05,5.230066610984282e-06,2.3459799535018657e-05,1.3477175774525775e-05,Unknown
0.32451922999999816,1.6784250314937256e-05,3.7934931354211015e-06,1.173686840636958e-05,5.263018538565405e-06,2.3406836342039632e-05,1.347055186944971e-05,Unknown
0.32503845999999825,1.6775887868124553e-05,3.786725772022374e-06,1.1347245743569687e-05,5.289819178401717e-06,2.340061710082156e-05,1.3466565748473884e-05,Unknown
0.32555768999999835,1.6728849810332818e-05,3.779835574898203e-06,1.0995194572611331e-05,5.309369047738036e-06,2.342607305022557e-05,1.3465564138835966e-05,Unknown
0.32607691999999844,1.6635876137169802e-05,3.7859050097808537e-06,1.0699201388315113e-05,5.3284147048049655e-06,2.344620503168389e-05,1.347315110640902e-05,Unknown
0.32659614999999853,1.6525176944240278e-05,3.805572127181267e-06,1.0469115995868044e-05,5.350624954103578e-06,2.3391255350844653e-05,1.34938643734796e-05,Unknown
0.3271153799999986,1.6407132716245793e-05,3.838707584510705e-06,1.0308381750812616e-05,5.370888664513786e-06,2.3323602108481773e-05,1.3521542717852068e-05,Unknown
0.32763461999999954,1.6273409300263585e-05,3.879014658309709e-06,1.0211872567074704e-05,5.38867845376108e-06,2.331124795065391e-05,1.3540414998235304e-05,Unknown
0.32815384999999964,1.6168068511305046e-05,3.9217774845528935e-06,1.0168113645582094e-05,5.4049809288751385e-06,2.3307772849931884e-05,1.3544414926079604e-05,Unknown
0.32867307999999973,1.6109081046692945e-05,3.972190905564004e-06,1.0159933941604589e-05,5.418692761578176e-06,2.333053485451872e-05,1.354414574542972e-05,Unknown
0.3291923099999998,1.6031959522707928e-05,4.036254110791505e-06,1.0165693995727991e-05,5.430970056858141e-06,2.338188137778008e-05,1.3545951847029306e-05,Unknown
0.32971153999999814,1.5865785809230814e-05,4.115565471697888e-06,1.01706991810934e-05,5.44221404585957e-06,2.3367570118334437e-05,1.3546630548622436e-05,Unknown
0.33023076999999823,1.5574654271188883e-05,4.198475942029844e-06,1.0166921245809497e-05,5.4508464101277664e-06,2.332899362660608e-05,1.3543743197309466e-05,Unknown
0.3307499999999983,1.5304959762778676e-05,4.261787779601046e-06,1.0144853604354155e-05,5.4545373823858204e-06,2.333596333571001e-05,1.3536892373052284e-05,Unknown
0.3312692299999984,1.523718238449501e-05,4.294997167594737e-06,1.0098926321809016e-05,5.453791812720173e-06,2.334104110809621e-05,1.353447193484752e-05,Unknown
0.3317884599999985,1.5276200971304117e-05,4.306864704894335e-06,1.0047301939177109e-05,5.453096698962949e-06,2.3332263391915652e-05,1.3553586985418236e-05,Unknown
0.3323076899999986,1.5295044711109417e-05,4.3094848372316296e-06,1.0023239687049395e-05,5.454684783905124e-06,2.327325552430442e-05,1.360514908375883e-05,Unknown
0.3328269199999987,1.529465171887887e-05,4.309127266959475e-06,1.0024279351189647e-05,5.456918827472654e-06,2.318561383313414e-05,1.3679271284979802e-05,Unknown
0.3333461499999988,1.529202674935475e-05,4.307386956443879e-06,1.0021958684736712e-05,5.457404416083581e-06,2.3175983261487622e-05,1.3746120186925406e-05,Unknown
0.3338653799999989,1.533557041941583e-05,4.30453879996302e-06,1.0016034878806066e-05,5.454250471489016e-06,2.3154532270545706e-05,1.3785911372817884e-05,Unknown
0.3343846199999998,1.5423561958130635e-05,4.302251750184068e-06,1.0015613159026116e-05,5.446842371826762e-06,2.3088749845986867e-05,1.3803080439593796e-05,Unknown
0.3349038499999981,1.5486643535569018e-05,4.302252955190571e-06,1.0015700384587547e-05,5.435223671747749e-06,2.310526156347638e-05,1.3806011196891722e-05,Unknown
0.3354230799999982,1.5516275047151286e-05,4.299603281724924e-06,1.0014186907090846e-05,5.4178308331168e-06,2.3114445822645364e-05,1.380209223290736e-05,Unknown
0.3359423099999983,1.554401055466511e-05,4.287730897737663e-06,1.0010453778934126e-05,5.391345005095611e-06,2.3061976164915422e-05,1.380015674238406e-05,Unknown
0.3364615399999984,1.5578224100414128e-05,4.267362750758985e-06,1.0003678388014325e-05,5.356069920052082e-06,2.305339823451308e-05,1.3801476234988918e-05,Unknown
0.3369807699999985,1.559383913740655e-05,4.238541734680093e-06,9.998820210948044e-06,5.322285508451976e-06,2.3039637237900272e-05,1.3802216362086168e-05,Unknown
0.3374999999999986,1.5561353214537028e-05,4.216793956068381e-06,9.99956772933332e-06,5.301430564832487e-06,2.2989065158640317e-05,1.3801972648079698e-05,Unknown
0.33801922999999867,1.5536275703265283e-05,4.24126300505274e-06,9.99517931261178e-06,5.291269308138125e-06,2.298928534751684e-05,1.3802308838474044e-05,Unknown
0.33853845999999876,1.5608345078169646e-05,4.310276775390993e-06,9.967761136218312e-06,5.282063686943293e-06,2.3041321224681896e-05,1.3803121151167618e-05,Unknown
0.33905768999999886,1.573720136966164e-05,4.368271326279336e-06,9.91205357530079e-06,5.266236835257357e-06,2.3086350259322555e-05,1.3804671343978077e-05,Unknown
0.33957691999999895,1.5800961523718598e-05,4.386127145271102e-06,9.83749395402712e-06,5.249510815721868e-06,2.310140935289831e-05,1.3806305756648278e-05,Unknown
0.34009614999999904,1.577115148911605e-05,4.379284656833974e-06,9.76271050488241e-06,5.246348177313472e-06,2.311825649060014e-05,1.3805025403823428e-05,Unknown
0.34061537999999913,1.570064666490853e-05,4.361551834962729e-06,9.700584579803876e-06,5.242093281125044e-06,2.3195213294600942e-05,1.3801059881221625e-05,Unknown
0.3411346199999983,1.5648658024671725e-05,4.3385902930529934e-06,9.646534708027606e-06,5.2177581206755816e-06,2.328591528923385e-05,1.379754850446562e-05,Unknown
0.34165384999999837,1.5659899095150172e-05,4.3176658702158e-06,9.591000884030066e-06,5.187969750690196e-06,2.329487047303985e-05,1.379576117007034e-05,Unknown
0.34217307999999846,1.569047296445159e-05,4.301167367043542e-06,9.532977568206473e-06,5.167552121070252e-06,2.326274430795819e-05,1.3794190963136795e-05,Unknown
0.34269230999999856,1.5685145654531537e-05,4.287963671500935e-06,9.482188439313028e-06,5.1539126933840914e-06,2.3256992081984345e-05,1.3785578413867791e-05,Unknown
0.34321153999999865,1.5683393592158603e-05,4.2792048762063295e-06,9.442744467480467e-06,5.141429220449277e-06,2.327108830555309e-05,1.3761138954486608e-05,Unknown
0.34373076999999874,1.568007521528317e-05,4.276334842699942e-06,9.401591557444872e-06,5.128570621318637e-06,2.332307745279169e-05,1.372845810340718e-05,Unknown
0.34424999999999883,1.5660351060720196e-05,4.276273605917545e-06,9.346541035670172e-06,5.116993753400565e-06,2.3281874967271622e-05,1.3708588757948608e-05,Unknown
0.3447692299999989,1.566920563689314e-05,4.276323702476985e-06,9.272861307676506e-06,5.107879521175171e-06,2.3070806901963616e-05,1.3705601732145282e-05,Unknown
0.345288459999999,1.5669564414550818e-05,4.27619058164996e-06,9.182102710511028e-06,5.100744272135223e-06,2.296823544803814e-05,1.370652909958872e-05,Unknown
0.3458076899999991,1.5663000506466555e-05,4.275425008418182e-06,9.086022492227352e-06,5.0947886929845775e-06,2.3037447320320945e-05,1.3706737746665487e-05,Unknown
0.3463269199999992,1.5718978651781915e-05,4.275638252457292e-06,8.989103112840116e-06,5.089767640179991e-06,2.3078249478451716e-05,1.370889082904208e-05,Unknown
0.3468461499999993,1.5759047371311883e-05,4.2763915990762905e-06,8.88782707612717e-06,5.085796496373418e-06,2.306705975694934e-05,1.3725407593493069e-05,Unknown
0.3473653799999994,1.5719561130011156e-05,4.275954595285768e-06,8.793915704383664e-06,5.082894660205498e-06,2.300721135673517e-05,1.3767027478675956e-05,Unknown
0.34788461999999853,1.5667497335833287e-05,4.276524488785966e-06,8.729691450871529e-06,5.080897528495703e-06,2.3005444843899063e-05,1.380014548895455e-05,Unknown
0.3484038499999986,1.5637204873711738e-05,4.278954058897445e-06,8.705544425375144e-06,5.079621745755261e-06,2.3176185557013232e-05,1.3792474654887683e-05,Unknown
0.3489230799999987,1.5629826393878955e-05,4.280316492793219e-06,8.719670069903781e-06,5.078959474492533e-06,2.3309211802648035e-05,1.3773682072579337e-05,Unknown
0.3494423099999988,1.5623971690033177e-05,4.27998978620088e-06,8.766365790044783e-06,5.078846255392547e-06,2.3282374297138963e-05,1.377286608288128e-05,Unknown
0.3499615399999989,1.5614178900701734e-05,4.27855723054537e-06,8.830127379692401e-06,5.079209448111461e-06,2.3233993943324336e-05,1.3777914372095538e-05,Unknown
0.350480769999999,1.5666726396108742e-05,4.280056234125204e-06,8.888662567215953e-06,5.0799624542103065e-06,2.322424343858195e-05,1.3777552275295952e-05,Stood
0.3509999999999991,1.5780687315371844e-05,4.2991238450648565e-06,8.927813841495529e-06,5.081023793589101e-06,2.3213074484038464e-05,1.3776700004259256e-05,Stood
0.3515192299999992,1.5883327711206415e-05,4.331169051594944e-06,8.946112016310634e-06,5.082326181244498e-06,2.308104047331357e-05,1.3778434139968374e-05,Stood
0.3520384599999993,1.5943195121510498e-05,4.351098052426617e-06,8.949137355446619e-06,5.08381169452444e-06,2.273155267864224e-05,1.3772425127835848e-05,Stood
0.35255768999999937,1.5948160976476917e-05,4.355902378346605e-06,8.941332798682956e-06,5.085425740975745e-06,2.233125326403644e-05,1.3751954975158357e-05,Stood
0.35307691999999946,1.5926408001749593e-05,4.356521049281267e-06,8.929376178392581e-06,5.087116407648118e-06,2.208901790289574e-05,1.3738915587179498e-05,Stood
0.35359614999999955,1.5970251896245458e-05,4.356605339591618e-06,8.925582572319563e-06,5.08883635298326e-06,2.1964106983411376e-05,1.3757915871045374e-05,Stood
0.35411537999999965,1.6089158301751927e-05,4.355670822113457e-06,8.92352042477332e-06,5.09054319378211e-06,2.1904479727801624e-05,1.3794829093909896e-05,Stood
0.3546346199999988,1.6183095691289444e-05,4.355622143466322e-06,8.899997893794244e-06,5.092198005146778e-06,2.190058694722932e-05,1.381770134580074e-05,Stood
0.3551538499999989,1.621683989860512e-05,4.359581535289751e-06,8.860201142009419e-06,5.093763978208203e-06,2.1867056569027283e-05,1.3820031654439644e-05,Stood
0.355673079999999,1.622753352417087e-05,4.3602644685105015e-06,8.830498120207117e-06,5.095206669398949e-06,2.1795441754580657e-05,1.3817529782425205e-05,Stood
0.35619230999999907,1.62559249913459e-05,4.353142578676146e-06,8.822231835351672e-06,5.096494976187466e-06,2.171010728426402e-05,1.3818139075177395e-05,Stood
0.35671153999999916,1.6313281698903497e-05,4.346297022815763e-06,8.831129864278203e-06,5.097600414056756e-06,2.164232826150244e-05,1.3817989173681362e-05,Stood
0.35723076999999925,1.6323026561700602e-05,4.3429381571115e-06,8.842947952225913e-06,5.098493915810494e-06,2.174810446014645e-05,1.3815805868139054e-05,Stood
0.35774999999999935,1.627059528789589e-05,4.341471057169042e-06,8.847037156478366e-06,5.09914395692549e-06,2.19820885560276e-05,1.3814552214952812e-05,Stood
0.35826922999999944,1.6246976556909516e-05,4.3427649754995765e-06,8.846473062900728e-06,5.0995212713963e-06,2.21142281422085e-05,1.381496622106092e-05,Stood
0.35878845999999953,1.6247012263042922e-05,4.345802553596667e-06,8.84466617792146e-06,5.099606991275423e-06,2.21200284746693e-05,1.380127603351732e-05,Stood
0.3593076899999996,1.6253027751242105e-05,4.347522047556803e-06,8.841781122184298e-06,5.099388865023264e-06,2.202831683460247e-05,1.373896708715101e-05,Stood
0.3598269199999997,1.6284467443309658e-05,4.347262832302836e-06,8.839908443174253e-06,5.098838941230272e-06,2.193326830747492e-05,1.3637790306983428e-05,Stood
0.3603461499999998,1.629235702080346e-05,4.34687689583385e-06,8.840603406883657e-06,5.097902246716608e-06,2.199270106325598e-05,1.3575481273458043e-05,Stood
0.3608653799999981,1.628658722263516e-05,4.347119196413602e-06,8.844265830849499e-06,5.0965386206180776e-06,2.20667604376467e-05,1.3572888992449845e-05,Stood
0.36138461999999905,1.628471289445856e-05,4.347160436569226e-06,8.844517739757491e-06,5.09478968503823e-06,2.203104131277255e-05,1.3567185563454628e-05,Stood
0.36190384999999914,1.623370260174016e-05,4.347305726930881e-06,8.834667400871908e-06,5.092735665505753e-06,2.2006889953631448e-05,1.3534030193583347e-05,Stood
0.36242307999999923,1.618007860968283e-05,4.3489051669635486e-06,8.822178190336951e-06,5.090307721827655e-06,2.200604629764068e-05,1.34904110837028e-05,Stood
0.3629423099999993,1.6176623622037937e-05,4.3509218285849255e-06,8.818350896664011e-06,5.08722126148136e-06,2.201335066037404e-05,1.3441057135124088e-05,Stood
0.3634615399999994,1.618532463157427e-05,4.3518946828430805e-06,8.82471708266349e-06,5.083339251909946e-06,2.2014017528405217e-05,1.3393842376723248e-05,Stood
0.3639807699999995,1.61843371334269e-05,4.350005450075721e-06,8.83732088909691e-06,5.079217827325907e-06,2.189034973686699e-05,1.3375619790394353e-05,Stood
0.3644999999999996,1.615715272726932e-05,4.341392311465415e-06,8.852751559002386e-06,5.075558486233476e-06,2.170168270081237e-05,1.3375323497739055e-05,Stood
0.3650192299999997,1.611053195226458e-05,4.326306802473956e-06,8.869379488663215e-06,5.071757923788487e-06,2.160506176062077e-05,1.3338946442295234e-05,Stood
0.3655384599999998,1.6094571380680866e-05,4.309426320818308e-06,8.885411118874816e-06,5.065614511776678e-06,2.159554290167551e-05,1.3271367940851215e-05,Stood
0.3660576899999981,1.6110184577651035e-05,4.29545648385602e-06,8.898445775771204e-06,5.056162305069183e-06,2.1619121343753077e-05,1.322087797505303e-05,Stood
0.3665769199999982,1.6108144931256194e-05,4.287380447857978e-06,8.908456565865892e-06,5.049785384926147e-06,2.162297640923168e-05,1.3196786750706792e-05,Stood
0.3670961499999983,1.6072565402910026e-05,4.284108859871245e-06,8.91633971474623e-06,5.050647996191024e-06,2.1535485586490552e-05,1.3185051093526008e-05,Stood
0.3676153799999984,1.6018850764041554e-05,4.282952665278943e-06,8.922485486208576e-06,5.047360914118848e-06,2.1385045330975484e-05,1.318153974611214e-05,Stood
0.3681346199999993,1.5978762247892493e-05,4.282976048129272e-06,8.928214697914737e-06,5.037431980646152e-06,2.1252608474892243e-05,1.3187804715879205e-05,Stood
0.3686538499999994,1.5958919626504514e-05,4.28389821564122e-06,8.937896277493808e-06,5.0332368509671244e-06,2.1191927127001908e-05,1.3191050313598842e-05,Stood
0.3691730799999995,1.589111222988787e-05,4.284006521195026e-06,8.956854587631975e-06,5.035569689411794e-06,2.1257286565117803e-05,1.3194022966533956e-05,Stood
0.3696923099999996,1.577586099264543e-05,4.2834435461610656e-06,8.980553661950583e-06,5.039475706481408e-06,2.1368069569193528e-05,1.3217250581014372e-05,Stood
0.3702115399999997,1.571418964052849e-05,4.282735964400962e-06,8.995236395145249e-06,5.04346095285156e-06,2.1402566294060628e-05,1.3224403022266236e-05,Stood
0.37073076999999977,1.571139474319237e-05,4.277479021073261e-06,8.996653340452814e-06,5.044233797261308e-06,2.140975058552821e-05,1.319985857714189e-05,Stood
0.37124999999999986,1.5729602349755406e-05,4.265910790080001e-06,8.99074164776078e-06,5.041145219697508e-06,2.1416396592025225e-05,1.3225416129323484e-05,Stood
0.3717692299999982,1.576650046271267e-05,4.253161418798741e-06,8.988943095519688e-06,5.039572599224378e-06,2.143779137196467e-05,1.3330931601053129e-05,Stood
0.37228845999999827,1.5771685256626056e-05,4.246113354721311e-06,9.006730667861686e-06,5.043937765822243e-06,2.151463637156702e-05,1.345076695826286e-05,Stood
0.37280768999999836,1.574652195340387e-05,4.245245233506016e-06,9.029769200109807e-06,5.053256343017335e-06,2.1533949257651103e-05,1.3528031010148373e-05,Stood
0.37332691999999845,1.5744500969362463e-05,4.245317355474846e-06,9.02910674089862e-06,5.06484125132232e-06,2.1472218074651416e-05,1.354157100476958e-05,Stood
0.37384614999999854,1.5724748744015154e-05,4.243925684832634e-06,9.004351602619153e-06,5.073012994841232e-06,2.1456248698271466e-05,1.3509972280278584e-05,Stood
0.37436537999999864,1.5683945607130144e-05,4.245040681999642e-06,8.956433888854116e-06,5.068299960907598e-06,2.146703339085669e-05,1.34806778705864e-05,Stood
0.37488461999999956,1.569923878230697e-05,4.255727781217003e-06,8.874608956896937e-06,5.053372977167774e-06,2.1466958770207728e-05,1.3477935830843484e-05,Stood
0.37540384999999965,1.574098000635098e-05,4.27463396384299e-06,8.757595986360005e-06,5.045403590468669e-06,2.146649401498207e-05,1.348523419905964e-05,Stood
0.37592307999999974,1.5754590612417038e-05,4.291188526276655e-06,8.643585240122999e-06,5.050646191880145e-06,2.1394844743519013e-05,1.3481697074808346e-05,Stood
0.37644230999999984,1.5746097996469288e-05,4.298158376555999e-06,8.584399053387061e-06,5.047436384326271e-06,2.1312824809559897e-05,1.3463184672370237e-05,Stood
0.37696153999999815,1.569905075907166e-05,4.296954399417188e-06,8.569785180464064e-06,5.010780549900005e-06,2.134724526508053e-05,1.3439111930915857e-05,Stood
0.37748076999999824,1.5636406136587493e-05,4.293570708872884e-06,8.564610863721361e-06,4.961588136913034e-06,2.144053940823157e-05,1.3425356517063465e-05,Stood
0.37799999999999834,1.560542399116011e-05,4.2920022243602975e-06,8.547330075418955e-06,4.936310258932567e-06,2.1545153579352443e-05,1.3429871578910892e-05,Stood
0.37851922999999843,1.5600393208703214e-05,4.291740244125605e-06,8.491125337471734e-06,4.921672985320645e-06,2.165081117605523e-05,1.3443894328665857e-05,Stood
0.3790384599999985,1.5605519435997708e-05,4.290934395270743e-06,8.413492775475346e-06,4.885777791122255e-06,2.1695799584825903e-05,1.3452271054082365e-05,Stood
0.3795576899999986,1.5581082113956455e-05,4.289044307043159e-06,8.377584939948962e-06,4.811829078798603e-06,2.1702793913268036e-05,1.3447828346121312e-05,Stood
0.3800769199999987,1.5490785788518613e-05,4.288826627898078e-06,8.395802129790622e-06,4.720929640286383e-06,2.170527666838915e-05,1.3432798056090533e-05,Stood
0.3805961499999988,1.5373103489374785e-05,4.290836959841886e-06,8.4218437778112e-06,4.680817887115641e-06,2.167029691460729e-05,1.3416837956959578e-05,Stood
0.3811153799999989,1.5281266311506117e-05,4.290293670188264e-06,8.4305496690475e-06,4.687720376362913e-06,2.1650818806875124e-05,1.3411649525763506e-05,Stood
0.3816346199999998,1.5245561781638948e-05,4.287698322695239e-06,8.43082680247634e-06,4.67355588655268e-06,2.1676517535739748e-05,1.3419972708867556e-05,Stood
0.38215384999999813,1.5265716950402994e-05,4.286294517244409e-06,8.431660821201978e-06,4.640342667602905e-06,2.166171958475376e-05,1.3434561821385156e-05,Stood
0.3826730799999982,1.5269381804292455e-05,4.285240718264588e-06,8.433205795439435e-06,4.620233041286434e-06,2.1617083122863315e-05,1.3448954150530804e-05,Stood
0.3831923099999983,1.5238890780857778e-05,4.282750241519549e-06,8.432976383714256e-06,4.607640204834407e-06,2.160716200834576e-05,1.3467714782506877e-05,Stood
