Time,Rectus Femoris,Vastus Medialis,Vastus Lateralis,Bicep Femoris,Tibialis,Gastrocnemius Medialis,Activity
0.00025961500000004634,1.5981170110817144e-05,4.398729003318361e-06,4.322286107986958e-06,5.97579334122956e-05,5.558616671062864e-05,4.563145576015314e-06,Unknown
0.0007788460000002217,1.6036808486601825e-05,4.412453679573077e-06,4.331948357871558e-06,5.839476259581988e-05,5.573909808883565e-05,4.472196548364677e-06,Unknown
0.001298076999999509,1.6111786430910494e-05,4.422691852502319e-06,4.344769136094944e-06,5.665480120306566e-05,5.59664292217052e-05,4.392920856584644e-06,Unknown
0.0018173079999996844,1.6080157893432343e-05,4.427458825491285e-06,4.353757662351421e-06,5.47170279897163e-05,5.616550403743205e-05,4.3274285910127854e-06,Unknown
0.002336537999999777,1.5878503423554318e-05,4.428120569122333e-06,4.35814660847913e-06,5.26018260367211e-05,5.6178220252736754e-05,4.276423012172725e-06,Unknown
0.0028557689999999525,1.5559660234324967e-05,4.427103566839715e-06,4.360168118710292e-06,5.028374995341186e-05,5.606663122275358e-05,4.25728313649854e-06,Unknown
0.003375000000000128,1.5325780797374824e-05,4.428106474595757e-06,4.359890860093148e-06,4.781801581969757e-05,5.5987725971746136e-05,4.255764174321694e-06,Unknown
0.0038942310000003033,1.5333247922980113e-05,4.432743973370461e-06,4.353294317610218e-06,4.534070788005723e-05,5.5949234982591134e-05,4.265549129362113e-06,Unknown
0.0044134619999995905,1.538208737396891e-05,4.433569277295484e-06,4.338425566134852e-06,4.2974646299026665e-05,5.5927162111572174e-05,4.315078148419952e-06,Unknown
0.004932691999999683,1.534844834172629e-05,4.42891758614135e-06,4.323292837395529e-06,4.077290809357101e-05,5.5807989724026384e-05,4.380488845227824e-06,Unknown
0.005451922999999859,1.5361013432900402e-05,4.42951043450125e-06,4.317516397387691e-06,3.874954254026116e-05,5.552198540555992e-05,4.410205151113066e-06,Unknown
0.005971154000000034,1.5373797319761047e-05,4.434688383115957e-06,4.3207428447275615e-06,3.693205618834032e-05,5.530686343490994e-05,4.411708003057231e-06,Unknown
0.0064903850000002095,1.5367168520580585e-05,4.437209908911872e-06,4.323897416552624e-06,3.537157365210829e-05,5.5279388241811655e-05,4.412476731353088e-06,Unknown
0.007009615000000302,1.5352845653642423e-05,4.426530736083042e-06,4.3236913708042405e-06,3.411122432198571e-05,5.528979501409521e-05,4.411055809783986e-06,Unknown
0.007528845999999589,1.5224434666797994e-05,4.39556846976684e-06,4.3219409694232166e-06,3.315021097587849e-05,5.528216189243793e-05,4.409145036728297e-06,Unknown
0.008048076999999765,1.514311857664846e-05,4.367803780648602e-06,4.31260238404088e-06,3.244103291950744e-05,5.5247672646507865e-05,4.4141133776788405e-06,Unknown
0.00856730799999994,1.5235165719978188e-05,4.360737613242853e-06,4.295853722931799e-06,3.192331326527559e-05,5.525862170801415e-05,4.414212929738229e-06,Unknown
0.009086538000000033,1.5326722203464487e-05,4.361101826230706e-06,4.282478495351225e-06,3.155110689926285e-05,5.549564302341312e-05,4.414051529838938e-06,Unknown
0.009605769000000208,1.536673778668724e-05,4.35953897661601e-06,4.276140414160301e-06,3.128951718802684e-05,5.592035776502084e-05,4.414017022581924e-06,Unknown
0.010124999999999496,1.5324556028833285e-05,4.349961488746581e-06,4.272827764047881e-06,3.110537243743537e-05,5.63261846222543e-05,4.4152532556588725e-06,Unknown
0.010644230999999671,1.51735379649788e-05,4.331004070330708e-06,4.269964630072464e-06,3.097104614161419e-05,5.662241992871861e-05,4.444973145669115e-06,Unknown
0.011163461999999846,1.507127109975987e-05,4.316328216604974e-06,4.266897066852243e-06,3.0872120434484256e-05,5.681699517870548e-05,4.47604681791386e-06,Unknown
0.011682691999999939,1.5076752781412185e-05,4.313363510019584e-06,4.263829029564514e-06,3.0806498660711854e-05,5.693860767757421e-05,4.479584474708169e-06,Unknown
0.012201923000000114,1.5150477567882784e-05,4.313536100180053e-06,4.26311275686204e-06,3.077539894068953e-05,5.6991583108126255e-05,4.478641271998193e-06,Unknown
0.01272115400000029,1.5339887899199538e-05,4.302429179566682e-06,4.26512799745939e-06,3.0774584071548505e-05,5.695436972099141e-05,4.478254430981176e-06,Unknown
0.013240384999999577,1.5570026352045083e-05,4.278856645480838e-06,4.259474350475701e-06,3.0791034271282214e-05,5.68378571344688e-05,4.474786920930036e-06,Unknown
0.01375961499999967,1.5654210746481667e-05,4.260782935460769e-06,4.2371264836740825e-06,3.0804423303318665e-05,5.662787796575952e-05,4.472427250043548e-06,Unknown
0.014278845999999845,1.5645435461192763e-05,4.26133270620185e-06,4.21245132618983e-06,3.0792741430052e-05,5.628949936846237e-05,4.469422463724129e-06,Unknown
0.01479807700000002,1.565242512334665e-05,4.27772204534308e-06,4.200835551310895e-06,3.074100015130281e-05,5.5934737414177054e-05,4.460645353605224e-06,Unknown
0.015317308000000196,1.5610186942895566e-05,4.300193539551409e-06,4.196531975420416e-06,3.064539723720818e-05,5.574477327552157e-05,4.444525992469636e-06,Unknown
0.01583653800000029,1.5529949357737158e-05,4.321310333022214e-06,4.194213292701831e-06,3.050531993092195e-05,5.571084256625322e-05,4.427027137654329e-06,Unknown
0.016355768999999576,1.5414661916017672e-05,4.338566753778984e-06,4.1961738026966204e-06,3.031123206843307e-05,5.5709139220204e-05,4.410647805330693e-06,Unknown
0.01687499999999975,1.5273666730515403e-05,4.348958593624308e-06,4.199471163333226e-06,3.0048386058025125e-05,5.568630551989681e-05,4.402139658913676e-06,Unknown
0.017394230999999927,1.5256865436552055e-05,4.348958048363385e-06,4.2002492634824764e-06,2.971865581671763e-05,5.5669614937961634e-05,4.403012095341574e-06,Unknown
0.017913462000000102,1.5313638964149824e-05,4.342799333588391e-06,4.1997100464137485e-06,2.9349928027525977e-05,5.576443381996392e-05,4.404230884332479e-06,Unknown
0.018432692000000195,1.5313249477129517e-05,4.337131828377566e-06,4.203155089467068e-06,2.8973734503185943e-05,5.59364052147432e-05,4.397793843313108e-06,Unknown
0.018951922999999482,1.5311220379494895e-05,4.337807399287809e-06,4.219602096958704e-06,2.859788491272956e-05,5.6050305753378745e-05,4.388339072166021e-06,Unknown
0.019471153999999657,1.5302897185216772e-05,4.351295448580093e-06,4.234710990730335e-06,2.820442373373996e-05,5.6122720510889865e-05,4.3878771012019e-06,Unknown
0.019990384999999833,1.5329171734123763e-05,4.362959837480759e-06,4.232459905917858e-06,2.777408027410478e-05,5.619999610503561e-05,4.380831346171192e-06,Unknown
0.020509614999999926,1.5450662840808482e-05,4.357666896406642e-06,4.22974464055918e-06,2.731304331541744e-05,5.634809284391401e-05,4.365212736253362e-06,Unknown
0.0210288460000001,1.5451548349512107e-05,4.3469434563754574e-06,4.229241814230871e-06,2.684913385347803e-05,5.652310237052621e-05,4.3641122531395255e-06,Unknown
0.021548077000000276,1.52909892737968e-05,4.3393035799394405e-06,4.2216087206460005e-06,2.6402597265531407e-05,5.644383039228036e-05,4.360859745737684e-06,Unknown
0.022067307999999564,1.519890805685006e-05,4.331882081955803e-06,4.207293115209813e-06,2.597123743087192e-05,5.6104657584556127e-05,4.346509083890816e-06,Unknown
0.022586537999999656,1.5188600032231742e-05,4.318328966398851e-06,4.188870546457018e-06,2.554580605470768e-05,5.58386461827004e-05,4.354374479195e-06,Unknown
0.02310576899999983,1.5186929051924386e-05,4.296596938153083e-06,4.176221593145476e-06,2.513312505934082e-05,5.573799132426029e-05,4.3895480083782965e-06,Unknown
0.023625000000000007,1.516402562933468e-05,4.280443688431256e-06,4.166738504635881e-06,2.4755268579266343e-05,5.566400144325077e-05,4.42229193194043e-06,Unknown
0.024144231000000183,1.509022058948844e-05,4.275162272304976e-06,4.158990434095466e-06,2.4426027131631048e-05,5.549157560848555e-05,4.435990368578189e-06,Unknown
0.02466346199999947,1.504138177333955e-05,4.27392681824243e-06,4.1572466084662335e-06,2.413814450846235e-05,5.514728930749094e-05,4.435976708201948e-06,Unknown
0.025182691999999562,1.5040767353483842e-05,4.279029388433078e-06,4.159372621475996e-06,2.387360888861065e-05,5.478561797659041e-05,4.430427721518172e-06,Unknown
0.025701922999999738,1.5024798782982132e-05,4.291943886241781e-06,4.172192443836094e-06,2.3620227565999628e-05,5.461161865299944e-05,4.417835854037309e-06,Unknown
0.026221153999999913,1.5011655295527751e-05,4.30708907719229e-06,4.188613846267732e-06,2.3379059918639245e-05,5.45858948444887e-05,4.395641072221943e-06,Unknown
0.02674038500000009,1.5012029476253943e-05,4.319537850307565e-06,4.193760487905783e-06,2.3157413239308903e-05,5.466018747127582e-05,4.377761342734835e-06,Unknown
0.02725961500000018,1.4998494386949894e-05,4.3258146693460535e-06,4.193383662762082e-06,2.295637326483231e-05,5.483457901003964e-05,4.3796597033026345e-06,Unknown
0.02777884599999947,1.4983625642932834e-05,4.330239238609527e-06,4.1942308719827135e-06,2.2768977263283744e-05,5.498135046999272e-05,4.384149468591412e-06,Unknown
0.028298076999999644,1.4968245510478382e-05,4.351535303779335e-06,4.1908148252997765e-06,2.259016015624673e-05,5.503611207517442e-05,4.384728377067821e-06,Unknown
0.02881730799999982,1.497301390382981e-05,4.392194937480442e-06,4.177343773912375e-06,2.2423521053469253e-05,5.506749003438473e-05,4.396801289728527e-06,Unknown
0.029336537999999912,1.5025533558632236e-05,4.43126464000136e-06,4.165347777654615e-06,2.2275295653082595e-05,5.51881375859448e-05,4.400024685609761e-06,Unknown
0.029855769000000087,1.5045160676693404e-05,4.463538991099785e-06,4.165321273246376e-06,2.214691256914448e-05,5.555624750918391e-05,4.402904214468025e-06,Unknown
0.030375000000000263,1.500450181481689e-05,4.503493961134654e-06,4.178304120861783e-06,2.203979189080577e-05,5.610095008834392e-05,4.435251587427034e-06,Unknown
0.03089423099999955,1.5006833850761444e-05,4.568838864020326e-06,4.20496376680481e-06,2.195970764699196e-05,5.6499831511808426e-05,4.465524566470614e-06,Unknown
0.031413461999999726,1.503284132180865e-05,4.658207034134178e-06,4.224409736677216e-06,2.190890536151346e-05,5.666466156878224e-05,4.474618712101284e-06,Unknown
0.03193269199999982,1.503104943959166e-05,4.7419918450011465e-06,4.21917971008005e-06,2.1881924105965848e-05,5.673938288441657e-05,4.476700820508825e-06,Unknown
0.032451922999999994,1.5011899181014646e-05,4.795448338676867e-06,4.2077008664582e-06,2.187130149136139e-05,5.683813707589083e-05,4.479509920735264e-06,Unknown
0.03297115400000017,1.490634388255538e-05,4.818578851255913e-06,4.205740060600008e-06,2.187082981144492e-05,5.698835867567724e-05,4.499227972292944e-06,Unknown
0.033490384999999456,1.4785930487431742e-05,4.823240473038895e-06,4.206149429992795e-06,2.1874048627361863e-05,5.698904045029306e-05,4.543252257310849e-06,Unknown
0.03400961499999955,1.4775408481815222e-05,4.820081415908603e-06,4.20158899110069e-06,2.18754746635023e-05,5.6689026667696994e-05,4.587739414620558e-06,Unknown
0.034528845999999724,1.478708228478547e-05,4.81706584464501e-06,4.196568285192681e-06,2.1875404977235337e-05,5.630961611001159e-05,4.598040589329131e-06,Unknown
0.0350480769999999,1.4787748481819835e-05,4.82533477815338e-06,4.208175290812358e-06,2.187873028045584e-05,5.606423878125415e-05,4.590399775602384e-06,Unknown
0.035567308000000075,1.4765969311684353e-05,4.854216814964108e-06,4.23907985704434e-06,2.188785939116005e-05,5.592276854958875e-05,4.629315865481359e-06,Unknown
0.03608653800000017,1.4638656983739654e-05,4.890646242818568e-06,4.26733100905428e-06,2.1900594964039065e-05,5.57946405999477e-05,4.7072097381049135e-06,Unknown
0.036605768999999455,1.4511932290289872e-05,4.913681547114057e-06,4.274365787379166e-06,2.1913697286734573e-05,5.563073385138211e-05,4.757486038694629e-06,Unknown
0.03712499999999963,1.449484005545742e-05,4.929417831001325e-06,4.26700115425639e-06,2.19227681727575e-05,5.553136504281073e-05,4.773791574064799e-06,Unknown
0.037644230999999806,1.450610092600328e-05,4.946622934044276e-06,4.266985217891147e-06,2.191975904496516e-05,5.561927955949351e-05,4.774930146586249e-06,Unknown
0.03816346199999998,1.45075559049687e-05,4.960635120585186e-06,4.275031183350299e-06,2.1897929179868566e-05,5.5807107505860174e-05,4.763893589296389e-06,Unknown
0.038682692000000074,1.450067298100647e-05,4.976569897413272e-06,4.277623121287525e-06,2.1859590674640806e-05,5.600939219621895e-05,4.770428815063634e-06,Unknown
0.03920192300000025,1.4460519125316094e-05,5.00107611464539e-06,4.275014217331971e-06,2.1813952897941267e-05,5.6261766901657686e-05,4.804372729072546e-06,Unknown
0.03972115399999954,1.442233810395814e-05,5.0349185739523405e-06,4.273866043455658e-06,2.1767996008963785e-05,5.652428030873186e-05,4.826693523014293e-06,Unknown
0.04024038499999971,1.4419031892582564e-05,5.080986467356832e-06,4.276465237907784e-06,2.172239764660485e-05,5.674362624464937e-05,4.833266421077875e-06,Unknown
0.040759614999999805,1.4414162410871736e-05,5.132671298238266e-06,4.282906849670189e-06,2.167473953893536e-05,5.69432710245174e-05,4.840418720962347e-06,Unknown
0.04127884599999998,1.4400533688159644e-05,5.1661314694276e-06,4.290551756931783e-06,2.1625107145120854e-05,5.713575443222933e-05,4.861420020276313e-06,Unknown
0.041798077000000156,1.4390477440570068e-05,5.178013562044405e-06,4.2973369186477225e-06,2.157807911401929e-05,5.7358519343071954e-05,4.929379774892418e-06,Unknown
0.04231730799999944,1.4365586000595452e-05,5.186643594017306e-06,4.30482226299046e-06,2.1538687659151172e-05,5.757244942004589e-05,4.978951793432756e-06,Unknown
0.042836537999999535,1.435745558685806e-05,5.202570462931611e-06,4.315151923022996e-06,2.15129148574154e-05,5.763118104939464e-05,4.977222056927225e-06,Unknown
0.04335576899999971,1.43680186770925e-05,5.221002238188442e-06,4.328544628639196e-06,2.151461485185863e-05,5.75706365602217e-05,5.117737388835388e-06,Unknown
0.043874999999999886,1.4368122859583987e-05,5.206725912723628e-06,4.334153380709128e-06,2.156173300703909e-05,5.752407567945819e-05,5.421882459110304e-06,Unknown
0.04439423100000006,1.4381870962201732e-05,5.157599743572849e-06,4.325822480746282e-06,2.165650081854664e-05,5.748492944470846e-05,5.614838757378951e-06,Unknown
0.04491346200000024,1.4346654970376696e-05,5.120731878458043e-06,4.300384152538908e-06,2.177576784381261e-05,5.7422131698068e-05,5.624079570323883e-06,Unknown
0.04543269199999944,1.427285931339339e-05,5.109564372147031e-06,4.248930932037248e-06,2.1896139066256925e-05,5.725029843385842e-05,5.628200676854342e-06,Unknown
0.04595192299999962,1.4286988775620527e-05,5.111005443916246e-06,4.206672178301409e-06,2.202314729975768e-05,5.694747223533975e-05,5.716487757773073e-06,Unknown
0.04647115399999979,1.432689441052882e-05,5.114183579363887e-06,4.204379663678442e-06,2.2191573581179618e-05,5.675501103018856e-05,5.834862301584935e-06,Unknown
0.04699038499999997,1.4321280841451606e-05,5.113232096812863e-06,4.209539515922911e-06,2.245029766724844e-05,5.677685433675483e-05,5.931336863720111e-06,Unknown
0.04750961500000006,1.4299251416939291e-05,5.119301304604301e-06,4.203344436140211e-06,2.2844811490151616e-05,5.683929075127282e-05,5.9955207501796766e-06,Unknown
0.048028846000000236,1.4230667878558904e-05,5.1384115490785344e-06,4.199753110483095e-06,2.340853196103068e-05,5.685342061609836e-05,6.026558918530695e-06,Unknown
0.04854807699999952,1.4174942715541105e-05,5.155479374757411e-06,4.200009739668787e-06,2.417097305008768e-05,5.684280997459925e-05,6.011846380078789e-06,Unknown
0.0490673079999997,1.4217055536858832e-05,5.16329649785946e-06,4.198812196427256e-06,2.517032772148332e-05,5.692412823576435e-05,6.008780063776984e-06,Unknown
0.04958653799999979,1.4282933063538485e-05,5.168048093526033e-06,4.1991650067501644e-06,2.645325010142814e-05,5.725124038167908e-05,6.155612443862978e-06,Unknown
0.05010576899999997,1.4307953879815097e-05,5.177195022041163e-06,4.203580961425296e-06,2.805079199285725e-05,5.771391717984115e-05,6.46019775675632e-06,Unknown
0.05062500000000014,1.4285442728009343e-05,5.206371659038556e-06,4.21199587379884e-06,2.9945304850038017e-05,5.8088988168649714e-05,6.7532341139078994e-06,Unknown
0.05114423099999943,1.4240903692697116e-05,5.254871237984056e-06,4.210050653988811e-06,3.2066564474317e-05,5.835438123596811e-05,6.907829951386348e-06,Unknown
0.051663461999999605,1.423606962924713e-05,5.296173866762152e-06,4.177420649133606e-06,3.4320347414036534e-05,5.8566533819378846e-05,6.943727867327272e-06,Unknown
0.0521826919999997,1.4236933643521396e-05,5.316782853086845e-06,4.133327836547044e-06,3.660712592737258e-05,5.872565607371566e-05,6.9444672002964766e-06,Unknown
0.05270192299999987,1.421930734703858e-05,5.327624271645292e-06,4.111655682026023e-06,3.881119581895061e-05,5.875672608377551e-05,6.940384020640637e-06,Unknown
0.05322115400000005,1.4257688771497535e-05,5.340282457411592e-06,4.108114981121023e-06,4.079590401149542e-05,5.860997952784738e-05,6.9220447406884566e-06,Unknown
0.053740385000000224,1.4316361031921422e-05,5.354716649035815e-06,4.109316869271995e-06,4.244117500751575e-05,5.836933492944632e-05,6.917652498575942e-06,Unknown
0.05425961499999943,1.4320002027833435e-05,5.367581321243401e-06,4.112992305754546e-06,4.369250328736322e-05,5.8111396975511775e-05,6.920775665654747e-06,Unknown
0.054778845999999604,1.4338480254434544e-05,5.379576480138951e-06,4.114935603339013e-06,4.456705984146407e-05,5.7825825674714834e-05,6.936567685356607e-06,Unknown
0.05529807699999978,1.438468716034906e-05,5.394672786059401e-06,4.11508605158476e-06,4.5119506988592045e-05,5.7535509255668245e-05,7.100193551985886e-06,Unknown
0.055817307999999954,1.4376625984105755e-05,5.414454121215178e-06,4.115090180538347e-06,4.541109267040948e-05,5.730982318228659e-05,7.358643646513003e-06,Unknown
0.05633653800000005,1.4340749268984922e-05,5.433563512051244e-06,4.11609236043561e-06,4.55063766848329e-05,5.713844635683584e-05,7.481771887911071e-06,Unknown
0.05685576900000022,1.4281945004082786e-05,5.44485155011204e-06,4.127955959815437e-06,4.548390118616657e-05,5.6957589454578034e-05,7.484726540793715e-06,Unknown
0.05737499999999951,1.418375657086444e-05,5.4448781818871735e-06,4.162443227620741e-06,4.543366627333777e-05,5.675908980545913e-05,7.464244451055689e-06,Unknown
0.057894230999999685,1.4157671399196009e-05,5.43544811385347e-06,4.218353199787048e-06,4.543637922313524e-05,5.662312170503551e-05,7.461971167748124e-06,Unknown
0.05841346199999986,1.4194825833340175e-05,5.426885915282834e-06,4.279947397155297e-06,4.554765053882048e-05,5.668522041599785e-05,7.514413109282803e-06,Unknown
0.05893269199999995,1.4197425761950586e-05,5.4318302776791415e-06,4.329886266998435e-06,4.580489533736161e-05,5.689923805952924e-05,7.519823019552593e-06,Unknown
0.05945192300000013,1.4203511656426692e-05,5.445940701697523e-06,4.359599550767017e-06,4.624792285714959e-05,5.7083538754929885e-05,7.632103390810112e-06,Unknown
0.059971154000000304,1.418962471681044e-05,5.452266972072764e-06,4.367092920893606e-06,4.693234223961217e-05,5.71815215361998e-05,8.204468864439921e-06,Unknown
0.06049038499999959,1.4140636933180716e-05,5.44751104196782e-06,4.362586523655457e-06,4.792367070570792e-05,5.721762895869618e-05,8.984866978967327e-06,Unknown
0.061009614999999684,1.4170918178957045e-05,5.439610465965152e-06,4.366674635182795e-06,4.927468319468553e-05,5.727092398874776e-05,9.482658897048872e-06,Unknown
0.06152884599999986,1.421690392668496e-05,5.432867429825398e-06,4.381061435128208e-06,5.099786988225243e-05,5.734843043943477e-05,9.641861836811238e-06,Unknown
0.062048077000000035,1.4175224735729506e-05,5.43402359073685e-06,4.39158168866345e-06,5.305028716292898e-05,5.727630618377581e-05,9.660777696259329e-06,Unknown
0.06256730800000021,1.4135813594256374e-05,5.454029765754136e-06,4.390749797201502e-06,5.534960005542682e-05,5.7055823331978165e-05,9.660399402788233e-06,Unknown
0.0630865380000003,1.413230008442266e-05,5.490131252040033e-06,4.38167358304759e-06,5.781769037250135e-05,5.690418871457225e-05,9.663508377777504e-06,Unknown
0.06360576899999959,1.4132779168742425e-05,5.525745602171115e-06,4.386461404120822e-06,6.041281177410041e-05,5.6857101703103446e-05,9.69965930079862e-06,Unknown
0.06412499999999977,1.413582099465933e-05,5.552335875017477e-06,4.412537164940866e-06,6.311383918698783e-05,5.681715910611618e-05,9.863228880360105e-06,Unknown
0.06464423099999994,1.4117616865053992e-05,5.574156892823917e-06,4.434085473205346e-06,6.586801762285995e-05,5.670264877833376e-05,1.0193411138790812e-05,Unknown
0.06516346200000012,1.4094293881250182e-05,5.597985584554634e-06,4.446906363460228e-06,6.856003840507977e-05,5.645709241517812e-05,1.0562269709303476e-05,Unknown
0.06568269200000021,1.4093836353529264e-05,5.625739668572832e-06,4.465180766630851e-06,7.105108909700325e-05,5.619552332252887e-05,1.0841748050379046e-05,Unknown
0.0662019229999995,1.41004463750188e-05,5.654293626022968e-06,4.467934101313482e-06,7.326117415357927e-05,5.607449928723712e-05,1.1023045147017724e-05,Unknown
0.06672115399999967,1.410978638268187e-05,5.679804910762774e-06,4.431597300073044e-06,7.521569204241082e-05,5.610603223685906e-05,1.1141830338180438e-05,Unknown
0.06724038499999985,1.408838772468248e-05,5.699463413775722e-06,4.378904795930112e-06,7.702536450609305e-05,5.624735739442935e-05,1.1214561336400344e-05,Unknown
0.06775961499999994,1.403587598504228e-05,5.711371415022396e-06,4.344542504043098e-06,7.883495137807128e-05,5.640352620442684e-05,1.1247839007845884e-05,Unknown
0.06827884600000012,1.4017958100590945e-05,5.715367656934254e-06,4.338284614658369e-06,8.07604138512521e-05,5.646511423296558e-05,1.1258266422176814e-05,Unknown
0.06879807700000029,1.401255944580939e-05,5.7151232412758e-06,4.3438032045629466e-06,8.279066569854594e-05,5.646156823455427e-05,1.1260962363240332e-05,Unknown
0.06931730799999958,1.4020488431662977e-05,5.715238559068462e-06,4.342415664683032e-06,8.468849760163453e-05,5.6460401906383965e-05,1.1260036993354512e-05,Unknown
0.06983653799999967,1.409938190651248e-05,5.715602594549731e-06,4.339468271290033e-06,8.607352519308116e-05,5.651462452543734e-05,1.1252064157506236e-05,Unknown
0.07035576899999985,1.4166999264593153e-05,5.714508091466863e-06,4.333132217898187e-06,8.675759014219387e-05,5.67149307619686e-05,1.1241909530821057e-05,Unknown
0.07087500000000002,1.415823287868613e-05,5.714065160139056e-06,4.305588884001145e-06,8.6941222403514e-05,5.694909802002224e-05,1.1237806984734273e-05,Unknown
0.0713942310000002,1.417528602723246e-05,5.717973461688504e-06,4.265837577112799e-06,8.695414640537171e-05,5.7001682521381845e-05,1.1236604742419738e-05,Unknown
0.07191346199999948,1.4226187795029352e-05,5.721951254783694e-06,4.238416839454838e-06,8.69555158262234e-05,5.694662386813017e-05,1.1235914975973785e-05,Unknown
0.07243269199999958,1.4230211661245582e-05,5.723120995266408e-06,4.225577884044289e-06,8.69690837458165e-05,5.692860813931047e-05,1.1229829632328775e-05,Unknown
0.07295192299999975,1.420707352254546e-05,5.723376533422084e-06,4.217126426810671e-06,8.701238188764302e-05,5.6956952846086695e-05,1.122151181580822e-05,Unknown
0.07347115399999993,1.4136402237375228e-05,5.71768091696523e-06,4.209831414665096e-06,8.715409000902733e-05,5.7007028989799024e-05,1.1231473649274088e-05,Unknown
0.0739903850000001,1.4032228060746177e-05,5.713784160527683e-06,4.203329082612368e-06,8.750825980865906e-05,5.693270737124591e-05,1.1254227032002337e-05,Unknown
0.0745096150000002,1.4014741069554228e-05,5.7234563314784944e-06,4.202243443631704e-06,8.81454502529751e-05,5.66787908042308e-05,1.126454423377133e-05,Unknown
0.07502884599999948,1.4036874335531384e-05,5.7358888561352456e-06,4.203190637194555e-06,8.903128870643408e-05,5.648893195318116e-05,1.125579576763132e-05,Unknown
0.07554807699999966,1.403579956590181e-05,5.748503421287779e-06,4.197319811405822e-06,9.007126533552483e-05,5.649621735996337e-05,1.123696676363837e-05,Unknown
0.07606730799999983,1.405216734562681e-05,5.768378808839019e-06,4.20151730330658e-06,9.117913026465224e-05,5.655835878398941e-05,1.1224905971424616e-05,Unknown
0.07658653799999993,1.4040182617348324e-05,5.787296025036878e-06,4.240246165190412e-06,9.22976500087544e-05,5.654096476485888e-05,1.122705332671136e-05,Unknown
0.0771057690000001,1.40121388976209e-05,5.799100000677712e-06,4.292292504723692e-06,9.338678569219628e-05,5.641890229183783e-05,1.1230332664588551e-05,Unknown
0.07762500000000028,1.4012088460983654e-05,5.79336786353806e-06,4.291494455465828e-06,9.441432997473092e-05,5.632541148149549e-05,1.1226482299234317e-05,Unknown
0.07814423099999956,1.4009963619112783e-05,5.760198355648982e-06,4.23256955945227e-06,9.536141406141844e-05,5.640492181650639e-05,1.1218941960631423e-05,Unknown
0.07866346199999974,1.4037224905526124e-05,5.728870711714492e-06,4.18339985389471e-06,9.623164230634194e-05,5.657947548939952e-05,1.121388314333803e-05,Unknown
0.07918269199999983,1.4084467224093976e-05,5.727928187475741e-06,4.170891741168884e-06,9.704468576208425e-05,5.6759513657538267e-05,1.1213694005880109e-05,Unknown
0.07970192300000001,1.40847328165306e-05,5.746908037237298e-06,4.184982172005198e-06,9.781540880701746e-05,5.69518711445341e-05,1.1211530546376788e-05,Unknown
0.08022115400000018,1.4075308244346377e-05,5.774091509344026e-06,4.223938488431348e-06,9.854022379269774e-05,5.7114549473055925e-05,1.1208302114147916e-05,Unknown
0.08074038499999947,1.407118912814732e-05,5.800137774769693e-06,4.266568545736446e-06,9.920474081430304e-05,5.720982058275375e-05,1.1215177072723551e-05,Unknown
0.08125961499999956,1.4026892937638557e-05,5.816607736435489e-06,4.287063675560178e-06,9.980237547811354e-05,5.721938350562182e-05,1.12324428259372e-05,Unknown
0.08177884599999974,1.3996890712493126e-05,5.82462427082051e-06,4.290262101417706e-06,0.0001003392578332,5.7134565975857176e-05,1.124691822658084e-05,Unknown
0.08229807699999991,1.4018783287291924e-05,5.819246603368634e-06,4.289642808999442e-06,0.0001008203669262,5.703160390898443e-05,1.125488316113963e-05,Unknown
0.08281730800000009,1.4040118409969044e-05,5.803487466812269e-06,4.287310258195468e-06,0.0001012384512415,5.692508456293888e-05,1.1265081646846568e-05,Unknown
0.08333653800000018,1.404456018264596e-05,5.794771398052312e-06,4.285024075552233e-06,0.0001015800863771,5.6735920365673774e-05,1.1295486584066469e-05,Unknown
0.08385576899999947,1.4045825086112045e-05,5.799327638765974e-06,4.285694167867805e-06,0.0001018391683139,5.651635716897105e-05,1.13681760022809e-05,Unknown
0.08437499999999964,1.4049364009903614e-05,5.807974886080955e-06,4.285299913774579e-06,0.0001020226542428,5.635475905951042e-05,1.1474180673595854e-05,Unknown
0.08489423099999982,1.402790139404096e-05,5.8131396965206765e-06,4.277688607990772e-06,0.0001021470582413,5.622018339165587e-05,1.1582684579584887e-05,Unknown
0.085413462,1.3919469081454737e-05,5.81504801762923e-06,4.250185371380518e-06,0.0001022322130728,5.606618367180293e-05,1.1688865418252166e-05,Unknown
0.08593269200000009,1.3812851591038083e-05,5.8159920833742014e-06,4.216330803954074e-06,0.0001022955800568,5.58085462352684e-05,1.1819716234793411e-05,Unknown
0.08645192300000026,1.3834732484714103e-05,5.816376718742238e-06,4.229943250337338e-06,0.0001023483667608,5.548432271579561e-05,1.200892764720626e-05,Unknown
0.08697115399999955,1.3882317992101464e-05,5.817412824922339e-06,4.2779057892583525e-06,0.0001023942279688,5.535591540114682e-05,1.2247249223089545e-05,Unknown
0.08749038499999973,1.3897179773380702e-05,5.827841064896467e-06,4.30489633859687e-06,0.0001024315189331,5.543431132070478e-05,1.2451668230421363e-05,Unknown
0.08800961499999982,1.392418347947582e-05,5.851855825261724e-06,4.310976795918332e-06,0.0001024584494561,5.549015868559952e-05,1.254761788352166e-05,Unknown
0.088528846,1.3956693668795528e-05,5.879328890720175e-06,4.311555440630517e-06,0.0001024760162923,5.548269187021327e-05,1.2561245109128312e-05,Unknown
0.08904807700000017,1.409789292954576e-05,5.903642089650027e-06,4.309254932215935e-06,0.000102487040927,5.544551367695661e-05,1.2560993375176306e-05,Unknown
0.08956730799999946,1.4328411966642665e-05,5.921012901789538e-06,4.3034822058619984e-06,0.0001024943043611,5.551764899135045e-05,1.2567736905965007e-05,Unknown
0.09008653799999955,1.442951430974226e-05,5.932734095949064e-06,4.2878342981866585e-06,0.0001024994838721,5.591841716790031e-05,1.2577251324804774e-05,Unknown
0.09060576899999973,1.4426024805094992e-05,5.945268454886817e-06,4.2649438878158106e-06,0.0001025033653017,5.646156085259155e-05,1.2593913974486832e-05,Unknown
0.0911249999999999,1.442643964911868e-05,5.956347534234897e-06,4.249803041485795e-06,0.0001025059625103,5.681175918044997e-05,1.2628117397411467e-05,Unknown
0.09164423100000008,1.440739810661273e-05,5.96266739008472e-06,4.249067730599556e-06,0.0001025066445061,5.697235251807351e-05,1.2688785826320554e-05,Unknown
0.09216346200000025,1.4410759196626172e-05,5.964733954992036e-06,4.263209148055205e-06,0.000102505826458,5.70557836095241e-05,1.2763438105040675e-05,Unknown
0.09268269199999946,1.4420659272207163e-05,5.963675038319194e-06,4.305080957952053e-06,0.0001025064127686,5.709741322956743e-05,1.2831380709131088e-05,Unknown
0.09320192299999963,1.4385398637474364e-05,5.961021516708819e-06,4.378573495784074e-06,0.0001025125647014,5.707475418319938e-05,1.2886385860235116e-05,Unknown
0.0937211539999998,1.4390775867930391e-05,5.957685271570274e-06,4.454636609417424e-06,0.0001025260439972,5.693094006930693e-05,1.2925806154019322e-05,Unknown
0.09424038499999998,1.4443517171990504e-05,5.954316152503083e-06,4.503846790954675e-06,0.0001025450404157,5.669204466913317e-05,1.2948117338578195e-05,Unknown
0.09475961500000007,1.445237709844086e-05,5.95136297509523e-06,4.522589308785929e-06,0.0001025677259108,5.644327948278493e-05,1.2960079667458522e-05,Unknown
0.09527884600000025,1.4471132987384208e-05,5.948727800139774e-06,4.52415455543761e-06,0.0001025946904348,5.617139373724627e-05,1.2971295508251288e-05,Unknown
0.09579807699999954,1.4605617312876625e-05,5.946445008900055e-06,4.523912975436225e-06,0.0001026283386639,5.591421923619616e-05,1.2990817797324196e-05,Unknown
0.09631730799999971,1.4829003754446994e-05,5.943883471438503e-06,4.531026459928124e-06,0.0001026713760454,5.5796842535295226e-05,1.3020511404529133e-05,Unknown
0.0968365379999998,1.5086924141888054e-05,5.947361234698679e-06,4.539947615462552e-06,0.000102724714362,5.5750712906969135e-05,1.304873690484923e-05,Unknown
0.09735576899999998,1.5434123553456154e-05,5.961470909542361e-06,4.536358688342112e-06,0.000102787010978,5.564626350711025e-05,1.3065891702679836e-05,Unknown
0.09787500000000016,1.5980480093589703e-05,5.971590727005778e-06,4.5254990507681385e-06,0.0001028558878601,5.549502191131354e-05,1.3075447254653432e-05,Unknown
0.09839423099999944,1.6594676178151964e-05,5.970002624743155e-06,4.510472840771972e-06,0.000102928322904,5.540587131594468e-05,1.3084680876318578e-05,Unknown
0.09891346199999962,1.689477117816057e-05,5.96544412721287e-06,4.491354553113269e-06,0.0001030011242646,5.5481670711496094e-05,1.3097486460763526e-05,Unknown
0.09943269199999971,1.6900235221912553e-05,5.963044605777603e-06,4.487819484746715e-06,0.0001030730523985,5.5616602023086e-05,1.3110835047126308e-05,Unknown
0.09995192299999989,1.7018389321400285e-05,5.964331782907816e-06,4.499164253644408e-06,0.0001031463889415,5.566246745510956e-05,1.3119717320737247e-05,Unknown
0.10047115400000006,1.7262605551542817e-05,5.966375336591724e-06,4.503000075801082e-06,0.0001032258472959,5.5662619765162974e-05,1.3124318545189624e-05,Unknown
0.10099038500000024,1.7393122695754362e-05,5.966019665589658e-06,4.500984293105231e-06,0.0001033152141407,5.5666778182073256e-05,1.3126997495017948e-05,Unknown
0.10150961499999944,1.7405830858997e-05,5.968085272157755e-06,4.503628963288656e-06,0.0001034123163121,5.566320487079468e-05,1.313066217931485e-05,Unknown
0.10202884599999962,1.736547936480357e-05,5.973336931371475e-06,4.4973692777044965e-06,0.0001035082082606,5.560840669449135e-05,1.313445591117782e-05,Unknown
0.1025480769999998,1.7314813376269763e-05,5.971465951876715e-06,4.482644035268346e-06,0.0001035956789886,5.540481922696898e-05,1.3136035328288717e-05,Unknown
0.10306730799999997,1.7310981046427105e-05,5.960457427615055e-06,4.476093792615466e-06,0.0001036756232514,5.51185760988893e-05,1.3136195726405756e-05,Unknown
0.10358653800000006,1.7367174120780635e-05,5.950473157115053e-06,4.475676893129698e-06,0.0001037523370763,5.49417478552416e-05,1.3131078079699766e-05,Unknown
0.10410576900000024,1.7461930037410008e-05,5.944428724534998e-06,4.477374074571511e-06,0.0001038276640488,5.487537958496724e-05,1.3120386606798488e-05,Unknown
0.10462499999999952,1.749465632548299e-05,5.936466277308608e-06,4.471815812853566e-06,0.0001039007198255,5.4816668007593046e-05,1.3113850800790266e-05,Unknown
0.1051442309999997,1.7441127186152782e-05,5.919590057691377e-06,4.462956473826706e-06,0.0001039703150127,5.469504041930091e-05,1.3112920666072983e-05,Unknown
0.10566346199999987,1.7476556142040813e-05,5.898156196971807e-06,4.463637583351286e-06,0.0001040371842618,5.448224280780143e-05,1.311288106275666e-05,Unknown
0.10618269199999997,1.768346131918017e-05,5.884441792460096e-06,4.461443879384416e-06,0.0001041036786056,5.427260598634384e-05,1.3112897519214925e-05,Unknown
0.10670192300000014,1.7952305799773714e-05,5.877235663244499e-06,4.456960094136274e-06,0.0001041708082425,5.41633190561954e-05,1.3110446346074404e-05,Unknown
0.10722115399999943,1.814656971145379e-05,5.868717726215294e-06,4.458261652193717e-06,0.0001042356270608,5.413983697009397e-05,1.3106985635568122e-05,Unknown
0.1077403849999996,1.8189692259842533e-05,5.853928749021195e-06,4.460097513840123e-06,0.0001042925625711,5.416849757029069e-05,1.310677621404866e-05,Unknown
0.1082596149999997,1.8175342089152552e-05,5.8449307265394105e-06,4.463554068689654e-06,0.0001043382707805,5.421883394999346e-05,1.3106997352365567e-05,Unknown
0.10877884599999987,1.8304110927124185e-05,5.857846764471872e-06,4.468674819687764e-06,0.000104374727251,5.423928970812768e-05,1.3104716967694756e-05,Unknown
0.10929807700000005,1.8523752021854384e-05,5.86927759174298e-06,4.4717614043406575e-06,0.0001044079977577,5.423207502916877e-05,1.3103281490714825e-05,Unknown
0.10981730800000022,1.8611406336631225e-05,5.856575457327514e-06,4.472547287806612e-06,0.0001044450396459,5.422826570418472e-05,1.3103322750634556e-05,Unknown
0.11033653799999943,1.85695684371006e-05,5.838087863344878e-06,4.470457297827592e-06,0.0001044893837972,5.427902320145116e-05,1.3102106304485792e-05,Unknown
0.1108557689999996,1.848067322386587e-05,5.827725856441603e-06,4.464389012656965e-06,0.0001045369567663,5.444828506164921e-05,1.3101226046277432e-05,Unknown
0.11137499999999978,1.838171159035944e-05,5.8188411497552325e-06,4.457940153379642e-06,0.0001045779834885,5.460158710792514e-05,1.310279094316585e-05,Unknown
0.11189423099999996,1.8346473342630283e-05,5.8084290212343015e-06,4.461229269627015e-06,0.0001046053780454,5.455537941242846e-05,1.3104802498602869e-05,Unknown
0.11241346200000013,1.836185932519805e-05,5.79762917331127e-06,4.478161056999993e-06,0.000104619741597,5.444152757787518e-05,1.310499094513358e-05,Unknown
0.11293269200000022,1.848596936268224e-05,5.785453175968674e-06,4.494352043785181e-06,0.0001046261594103,5.44137690017204e-05,1.310029412424914e-05,Unknown
0.11345192299999951,1.8801184678116023e-05,5.772075172984901e-06,4.499496080204919e-06,0.0001046288805126,5.440452949834277e-05,1.3092925404400153e-05,Unknown
0.11397115399999969,1.909448106226576e-05,5.763283881733639e-06,4.496924327103182e-06,0.0001046295082336,5.431135701930947e-05,1.3095372959272008e-05,Unknown
0.11449038499999986,1.9222332261812644e-05,5.764764733939187e-06,4.483663442854233e-06,0.0001046291656544,5.396989931811942e-05,1.3106086833115049e-05,Unknown
0.11500961499999995,1.930627260775879e-05,5.77397939046756e-06,4.4790595008983e-06,0.0001046309847367,5.33871172285709e-05,1.3110922958081986e-05,Unknown
0.11552884600000013,1.9455339305901063e-05,5.792971953350328e-06,4.511151072594248e-06,0.0001046387178285,5.2931992721299646e-05,1.3110875195991667e-05,Unknown
0.1160480770000003,1.9770272684764077e-05,5.821841272347566e-06,4.548993730231097e-06,0.0001046532311606,5.279175679258311e-05,1.3110675364708063e-05,Unknown
0.11656730799999959,2.0180973178024386e-05,5.836809291528385e-06,4.543913975476509e-06,0.0001046719563199,5.277351272099566e-05,1.311043500521313e-05,Unknown
0.11708653799999968,2.0412394790298103e-05,5.832650971974678e-06,4.506005025079286e-06,0.000104692069419,5.268772670778549e-05,1.3110264666830468e-05,Unknown
0.11760576899999986,2.0444662366836312e-05,5.832329312558409e-06,4.4829048660047565e-06,0.0001047129698919,5.2513990033386805e-05,1.3104338660316428e-05,Unknown
0.11812500000000004,2.0447198538690865e-05,5.834689265682707e-06,4.4813673284645765e-06,0.0001047352424948,5.241825530057267e-05,1.3096032006484634e-05,Unknown
0.11864423100000021,2.044762044787304e-05,5.834201393256359e-06,4.482554561608639e-06,0.0001047589680141,5.253008680052385e-05,1.3093879170861188e-05,Unknown
0.1191634619999995,2.04501217095794e-05,5.836581782402873e-06,4.499466875608545e-06,0.0001047840178432,5.276374350185761e-05,1.309401918430424e-05,Unknown
0.11968269199999959,2.047445378913735e-05,5.825362625091462e-06,4.516711344137593e-06,0.0001048104384269,5.303408480021642e-05,1.3095230333455716e-05,Unknown
0.12020192299999977,2.049872679509453e-05,5.795274173229513e-06,4.516366842320799e-06,0.0001048372260033,5.327311597239278e-05,1.309691834457927e-05,Unknown
0.12072115399999994,2.05258270226489e-05,5.775285950380457e-06,4.528860417051544e-06,0.0001048618306149,5.33993220496228e-05,1.3095011997380483e-05,Unknown
0.12124038500000012,2.0530388962877852e-05,5.77376792521064e-06,4.540233027761e-06,0.0001048828522571,5.3445088304979405e-05,1.3094611165662868e-05,Unknown
0.12175961500000021,2.0473641086579255e-05,5.772680097986575e-06,4.52780724193064e-06,0.0001049026873689,5.342156033245453e-05,1.3097301541889211e-05,Unknown
0.1222788459999995,2.0398295989770783e-05,5.762814693487355e-06,4.519013793019039e-06,0.0001049259762807,5.3300306412319496e-05,1.3097136503291889e-05,Unknown
0.12279807699999967,2.0336705807048843e-05,5.74593719839014e-06,4.520490158510583e-06,0.0001049541166239,5.315411724367391e-05,1.3096496073465998e-05,Unknown
0.12331730799999985,2.0283760645987534e-05,5.7303861295091805e-06,4.519409059302392e-06,0.0001049813417739,5.299253939261393e-05,1.3097402049879744e-05,Unknown
0.12383653799999994,2.0253249178998748e-05,5.725006906750788e-06,4.52216548551815e-06,0.0001050006001404,5.276188530059428e-05,1.3096288965566591e-05,Unknown
0.12435576900000012,2.0245716861537867e-05,5.728335307579786e-06,4.532587912212635e-06,0.0001050112407551,5.253000341220052e-05,1.3098525263460938e-05,Unknown
0.12487500000000029,2.0263728623849256e-05,5.727983926016175e-06,4.538903162224847e-06,0.0001050177253211,5.2366650036429455e-05,1.3107522709257676e-05,Unknown
0.12539423099999958,2.030318687236232e-05,5.718257609761762e-06,4.536328173363911e-06,0.0001050258993843,5.2252867203601146e-05,1.3114781961125698e-05,Unknown
0.12591346199999975,2.0321439040892804e-05,5.706523140808408e-06,4.533746762661575e-06,0.0001050388972482,5.212574698553537e-05,1.3116134550271094e-05,Unknown
0.12643269199999985,2.0336068785809456e-05,5.69828913754361e-06,4.5320036651270685e-06,0.0001050536446417,5.185157147834197e-05,1.3113645411235925e-05,Unknown
0.12695192300000002,2.0414208262037432e-05,5.6980612039997535e-06,4.525649611709481e-06,0.0001050648677457,5.150055588262383e-05,1.3113515216403637e-05,Unknown
0.1274711540000002,2.0506471522109105e-05,5.706043173772658e-06,4.520187405942108e-06,0.0001050711017368,5.136046506476943e-05,1.3119326239847624e-05,Unknown
0.12799038499999948,2.058664635248404e-05,5.711903062763929e-06,4.516925085369818e-06,0.0001050742659215,5.139116832535677e-05,1.3126128895078063e-05,Unknown
0.12850961499999958,2.096442042788127e-05,5.712120137879387e-06,4.514127739725705e-06,0.0001050761410642,5.139780337593615e-05,1.3131745794301595e-05,Unknown
0.12902884599999975,2.332595132324347e-05,5.709419938075192e-06,4.509347645940824e-06,0.0001050767326458,5.138937287292989e-05,1.3131551602617227e-05,Unknown
0.12954807699999993,2.9856900091569556e-05,5.71246394521899e-06,4.503441584870672e-06,0.0001050752471993,5.131429552188845e-05,1.3117817559783697e-05,Unknown
0.1300673080000001,3.789316973928391e-05,5.733636238968168e-06,4.518720939366515e-06,0.0001050719604124,5.125434729923483e-05,1.3098034881395778e-05,Unknown
0.1305865380000002,4.296672972225616e-05,5.758577005574704e-06,4.552106204236477e-06,0.0001050679465562,5.147494765124554e-05,1.3087960618002346e-05,Unknown
0.13110576899999948,4.452955135854804e-05,5.767085510593926e-06,4.572643182452322e-06,0.0001050630979862,5.185722314757002e-05,1.3087859398562615e-05,Unknown
0.13162499999999966,4.468528337323066e-05,5.766496031240152e-06,4.579238335474843e-06,0.0001050551375896,5.213601338557912e-05,1.308777247094168e-05,Unknown
0.13214423099999983,4.46818059105836e-05,5.766505038982868e-06,4.583930860137687e-06,0.0001050405867621,5.2315643594985895e-05,1.3087394064157094e-05,Unknown
0.132663462,4.470048077873158e-05,5.763761320747162e-06,4.590843614061452e-06,0.0001050187643431,5.243870774197829e-05,1.3087851354758193e-05,Unknown
0.1331826920000001,4.475794433457029e-05,5.760278174283301e-06,4.60872690852282e-06,0.0001049944648765,5.249656452332992e-05,1.308671305015604e-05,Unknown
0.13370192300000028,4.491772385573906e-05,5.767848092725236e-06,4.641961102237708e-06,0.0001049737450878,5.2448954540003934e-05,1.3086891565834826e-05,Unknown
0.13422115399999957,4.5260553691535455e-05,5.791265515557936e-06,4.676342254170161e-06,0.0001049589701657,5.219043874247733e-05,1.308615027464559e-05,Unknown
0.13474038499999974,4.57069910106342e-05,5.821953070652665e-06,4.691502364005778e-06,0.0001049494151599,5.1726205890022986e-05,1.3085338106570818e-05,Unknown
0.13525961499999983,4.609417635232118e-05,5.848503423352417e-06,4.692358988986947e-06,0.0001049438561392,5.124987917182144e-05,1.3085505659781036e-05,Unknown
0.135778846,4.6379050729836745e-05,5.8655297155717975e-06,4.691322607568601e-06,0.0001049414172248,5.090575210713774e-05,1.3075308607292874e-05,Unknown
0.13629807700000018,4.663755254762662e-05,5.87334849600573e-06,4.689718046340682e-06,0.0001049412285322,5.078959386447109e-05,1.306374874347021e-05,Unknown
0.13681730799999947,4.697400047599396e-05,5.872973236980216e-06,4.707721979583272e-06,0.0001049420007,5.09206442138204e-05,1.3064827696590344e-05,Unknown
0.13733653799999956,4.7415819719654296e-05,5.868546173918098e-06,4.751869622313568e-06,0.0001049419293127,5.106957499314012e-05,1.306737166246078e-05,Unknown
0.13785576899999974,4.782579040919499e-05,5.866199998605769e-06,4.780481353821245e-06,0.0001049394948886,5.107348866552659e-05,1.3067041244770502e-05,Unknown
0.13837499999999991,4.808019024547032e-05,5.866796650052237e-06,4.781207429332466e-06,0.0001049347463949,5.100239701696168e-05,1.307133250681258e-05,Unknown
0.1388942310000001,4.826577448960279e-05,5.869026457959138e-06,4.794026017268928e-06,0.0001049291161334,5.101353729070624e-05,1.307850478009631e-05,Unknown
0.13941346200000027,4.850218221655405e-05,5.86861210644032e-06,4.81437087048913e-06,0.0001049234651873,5.123937590853243e-05,1.308454241349171e-05,Unknown
0.13993269199999947,4.885414954152773e-05,5.858588205487183e-06,4.813015051490278e-06,0.0001049171692531,5.150651053818012e-05,1.3090828594089092e-05,Unknown
0.14045192299999965,4.931952184837812e-05,5.840906042260593e-06,4.812586995158191e-06,0.0001049090964462,5.1549609348250586e-05,1.3102512079001663e-05,Unknown
0.14097115399999982,4.971251175005441e-05,5.82388375846528e-06,4.818255895496388e-06,0.0001048983520669,5.145856695519177e-05,1.3126756305274754e-05,Unknown
0.141490385,4.991100391128161e-05,5.811817130441414e-06,4.815588765679216e-06,0.0001048849779352,5.139393253529529e-05,1.3156996910066908e-05,Unknown
0.1420096150000001,4.99946314755188e-05,5.806523159580329e-06,4.822981474291577e-06,0.000104870526903,5.133745702641582e-05,1.3172971683775947e-05,Unknown
0.14252884600000026,5.00422964232818e-05,5.808104427574847e-06,4.838405934057957e-06,0.0001048563642049,5.124675965588149e-05,1.317378942981427e-05,Unknown
0.14304807699999955,5.0121468978577445e-05,5.809793494857073e-06,4.844243890440532e-06,0.0001048417531362,5.108258682549794e-05,1.3173413449983618e-05,Unknown
0.14356730799999973,5.0260490289436034e-05,5.810113005448252e-06,4.840261291302596e-06,0.0001048243139037,5.089196936404315e-05,1.317346715298131e-05,Unknown
0.14408653799999982,5.039875277184067e-05,5.822120301145087e-06,4.825627190663671e-06,0.0001048014839001,5.079943834164433e-05,1.3172961098150128e-05,Unknown
0.144605769,5.049094022287019e-05,5.852675413534955e-06,4.8117390180953606e-06,0.0001047723988325,5.078977081924826e-05,1.3173019651678968e-05,Unknown
0.14512500000000017,5.051865247038442e-05,5.895243682352506e-06,4.810229808430107e-06,0.0001047386718342,5.075351071673719e-05,1.3174589284896446e-05,Unknown
0.14564423099999946,5.048467242087879e-05,5.935675316335767e-06,4.807966276554101e-06,0.0001047022589584,5.062284048431307e-05,1.3182696477747476e-05,Unknown
0.14616346199999963,5.045975914009896e-05,5.9617513416764064e-06,4.8059039089002565e-06,0.000104663464158,5.041468779162504e-05,1.3194878276722157e-05,Unknown
0.14668269199999973,5.050805301699831e-05,5.974783828919977e-06,4.813426118918789e-06,0.0001046218978183,5.02719361132264e-05,1.320293100367262e-05,Unknown
0.1472019229999999,5.0596446901381815e-05,5.979647253119964e-06,4.821053605380151e-06,0.0001045788885626,5.030210353562904e-05,1.3204966248221193e-05,Unknown
0.14772115400000008,5.066681448618692e-05,5.978496468779312e-06,4.821308931285507e-06,0.0001045381050608,5.047231630572461e-05,1.3200340238111149e-05,Unknown
0.14824038500000025,5.071665120488102e-05,5.975816586305901e-06,4.815753366488351e-06,0.0001045025368325,5.0795636867303344e-05,1.3188690742585778e-05,Unknown
0.14875961499999946,5.077062288337292e-05,5.976466434774624e-06,4.811833092669614e-06,0.000104471332071,5.132009621405735e-05,1.317672225508434e-05,Unknown
0.14927884599999963,5.083614731147058e-05,5.984660211961109e-06,4.81163555320402e-06,0.0001044415968713,5.195328072662893e-05,1.3171361521568588e-05,Unknown
0.1497980769999998,5.0876412653470814e-05,6.00221419076101e-06,4.812471218011686e-06,0.0001044117573845,5.262539270247726e-05,1.3174901237035934e-05,Unknown
0.15031730799999998,5.088117617071453e-05,6.0187027328326815e-06,4.810653250462599e-06,0.0001043819369148,5.345968067333475e-05,1.3183801724944546e-05,Unknown
0.15083653800000008,5.088098858292809e-05,6.017816729048635e-06,4.798051644564415e-06,0.0001043538976326,5.464858266617063e-05,1.318874281390171e-05,Unknown
0.15135576900000025,5.088429056801688e-05,6.004168718754422e-06,4.780949699409999e-06,0.0001043298646391,5.612100705629499e-05,1.3189475321786004e-05,Unknown
0.15187499999999954,5.09351587299977e-05,5.994096298463214e-06,4.774100505710267e-06,0.0001043102590042,5.738861731670342e-05,1.318905765228231e-05,Unknown
0.1523942309999997,5.101509119362043e-05,5.989200390423382e-06,4.781149539013039e-06,0.0001042943856634,5.807074807763053e-05,1.318994613507652e-05,Unknown
0.1529134619999999,5.1033186633917634e-05,5.981984930928211e-06,4.787053374986177e-06,0.0001042821039577,5.8341340507699805e-05,1.320521401409789e-05,Unknown
0.15343269199999998,5.1035680870982365e-05,5.963491491178915e-06,4.784958435337094e-06,0.0001042736672183,5.852916844706161e-05,1.3224120084295729e-05,Unknown
0.15395192300000016,5.106549437252616e-05,5.937700388084275e-06,4.791744617530589e-06,0.0001042691778754,5.877376734547195e-05,1.3225631544578438e-05,Unknown
0.15447115399999944,5.105527131003438e-05,5.916777187440376e-06,4.797562898865918e-06,0.0001042685787666,5.902995243435772e-05,1.322432801418291e-05,Unknown
0.15499038499999962,5.1074871016146e-05,5.896675514941145e-06,4.794251792007418e-06,0.0001042712797626,5.900245366837834e-05,1.3221963057231945e-05,Unknown
0.1555096149999997,5.1287114994825e-05,5.864220747392081e-06,4.789848673779227e-06,0.0001042752664748,5.858248608713902e-05,1.3216639526252644e-05,Unknown
0.1560288459999999,5.1658145489466346e-05,5.805591167278826e-06,4.771903068956513e-06,0.0001042778469897,5.818699049001988e-05,1.3234778713986264e-05,Unknown
0.15654807700000006,5.200211802552523e-05,5.717700881634252e-06,4.75174175856156e-06,0.000104278103118,5.817076697542187e-05,1.3265351594819447e-05,Unknown
0.15706730800000024,5.220566897076214e-05,5.625256382613529e-06,4.748883856990857e-06,0.0001042769838703,5.846133165538423e-05,1.3279648642354676e-05,Unknown
0.15758653799999944,5.228293957479024e-05,5.560213620111935e-06,4.750534345259126e-06,0.0001042753100163,5.8876192875135686e-05,1.3282352343589866e-05,Unknown
0.15810576899999962,5.2308055748284815e-05,5.529956469544555e-06,4.750503925428465e-06,0.0001042735044261,5.941225794329684e-05,1.3281353465933952e-05,Unknown
0.1586249999999998,5.232490915733584e-05,5.5215885871253024e-06,4.757638497035891e-06,0.0001042724525281,6.027703431496675e-05,1.3288685495939074e-05,Unknown
0.15914423099999997,5.233201061126208e-05,5.5220994846643765e-06,4.773223905495687e-06,0.0001042727775089,6.152717202134069e-05,1.3323543936035556e-05,Unknown
0.15966346200000014,5.23375235766224e-05,5.524079808380569e-06,4.7857517806955335e-06,0.0001042735051792,6.288246417065414e-05,1.3383824709718367e-05,Unknown
0.16018269200000024,5.23453184014183e-05,5.517213446038619e-06,4.776054481351658e-06,0.000104273148526,6.406137137788683e-05,1.3447112824967392e-05,Unknown
0.16070192299999952,5.23454749188404e-05,5.484760189447281e-06,4.753870632881155e-06,0.0001042713909528,6.493658120641568e-05,1.3495082797417086e-05,Unknown
0.1612211539999997,5.23444116689673e-05,5.431608446732668e-06,4.743725735450799e-06,0.0001042688138758,6.549878086702251e-05,1.3536775010432607e-05,Unknown
0.16174038499999988,5.234368049532337e-05,5.389418782155481e-06,4.739486482972695e-06,0.0001042660760766,6.584512062067987e-05,1.3598211301900664e-05,Unknown
0.16225961499999997,5.234799052411794e-05,5.369494274435265e-06,4.734115680925165e-06,0.0001042636650223,6.608577323087224e-05,1.3693243059204271e-05,Unknown
0.16277884600000014,5.238754663731298e-05,5.357623446737581e-06,4.728376871261673e-06,0.0001042618650111,6.633622822390075e-05,1.3826227675142676e-05,Unknown
0.16329807699999943,5.242246668589295e-05,5.33902634382194e-06,4.721584412874889e-06,0.0001042607199062,6.666557969701253e-05,1.399438639796683e-05,Unknown
0.1638173079999996,5.24222648074327e-05,5.308258101350478e-06,4.718443808642718e-06,0.0001042600808854,6.69337962196397e-05,1.4165778736343804e-05,Unknown
0.1643365379999997,5.246488853959241e-05,5.271880085846943e-06,4.716933629483618e-06,0.0001042597921468,6.695981636091197e-05,1.4295833858470548e-05,Unknown
0.16485576899999987,5.249836001093437e-05,5.232303062836376e-06,4.7146443728167805e-06,0.0001042597994785,6.680188807333975e-05,1.4376182636336213e-05,Unknown
0.16537500000000005,5.250265143602341e-05,5.181818164787503e-06,4.712562455031384e-06,0.0001042602585583,6.663521811022107e-05,1.4427391359300575e-05,Unknown
0.16589423100000023,5.25734023858453e-05,5.122149449144272e-06,4.717417086264619e-06,0.0001042614414193,6.655093233490309e-05,1.4465119546612169e-05,Unknown
0.1664134619999995,5.259102098293341e-05,5.0781570556828616e-06,4.72794403334377e-06,0.0001042627090532,6.655510676817037e-05,1.4487853720431151e-05,Unknown
0.1669326919999996,5.265935428185058e-05,5.062323049195706e-06,4.727233792217738e-06,0.0001042617428579,6.649548950168409e-05,1.4482296018308123e-05,Unknown
0.16745192299999978,5.311852565166879e-05,5.059682004930255e-06,4.720718270607495e-06,0.000104256080031,6.6275313796515e-05,1.4469825951041878e-05,Unknown
0.16797115399999996,5.384480803433127e-05,5.055013455784244e-06,4.72174120833472e-06,0.0001042443726435,6.610890958752026e-05,1.4469661430413116e-05,Unknown
0.16849038500000013,5.450752850601738e-05,5.04349849993047e-06,4.725172008077569e-06,0.0001042249938915,6.609073900203071e-05,1.4427504935179774e-05,Unknown
0.16900961500000022,5.501161238377984e-05,5.0377994516443525e-06,4.732588038191054e-06,0.0001041955421957,6.609130006344061e-05,1.4338767988941282e-05,Unknown
0.1695288459999995,5.536739536125006e-05,5.039766309742878e-06,4.743604299172398e-06,0.0001041554778609,6.610119861237951e-05,1.4308057435732786e-05,Unknown
0.1700480769999997,5.555895734112414e-05,5.039977179572771e-06,4.746587965113767e-06,0.0001041081239692,6.608249686297757e-05,1.4376088929176847e-05,Unknown
0.17056730799999986,5.5593181575364846e-05,5.040675578908567e-06,4.748209629088198e-06,0.0001040572493933,6.603978289335864e-05,1.4488688341000262e-05,Unknown
0.17108653799999995,5.558676301908632e-05,5.03906496114558e-06,4.753108105323975e-06,0.0001040009297575,6.612272830153788e-05,1.4634095704916366e-05,Unknown
0.17160576900000013,5.563074934851745e-05,5.035970954951748e-06,4.755938770329668e-06,0.0001039294514521,6.623607547294336e-05,1.4842763553851215e-05,Unknown
0.1721250000000003,5.566064145523463e-05,5.036128274875956e-06,4.766279548116925e-06,0.0001038285875381,6.621285893551776e-05,1.5119015964940094e-05,Unknown
0.1726442309999996,5.565739246127164e-05,5.02756531115933e-06,4.788630116273485e-06,0.0001036859369785,6.614462235209333e-05,1.544979761029272e-05,Unknown
0.17316346199999977,5.566270846137218e-05,5.003362587680519e-06,4.810181615970645e-06,0.0001034953904152,6.611574763232157e-05,1.5825974181557832e-05,Unknown
0.17368269199999986,5.566314895854433e-05,4.980010760713731e-06,4.823219200763319e-06,0.0001032542549318,6.608760586409879e-05,1.6237907200881065e-05,Unknown
0.17420192300000004,5.565103343603955e-05,4.96941318840956e-06,4.832639502884918e-06,0.000102955340508,6.597346561645433e-05,1.6669416247099274e-05,Unknown
0.1747211540000002,5.56340378822849e-05,4.965221400798461e-06,4.842654747225189e-06,0.0001025828323747,6.568889434818213e-05,1.7111423561214154e-05,Unknown
0.1752403849999995,5.56350485941541e-05,4.96075189553239e-06,4.845857961548137e-06,0.0001021173524728,6.530623981055482e-05,1.7583769631537755e-05,Unknown
0.1757596149999996,5.564289245202256e-05,4.94906674688832e-06,4.838245232972214e-06,0.0001015464186184,6.496508818034311e-05,1.8099068826865743e-05,Unknown
0.17627884599999977,5.56435793164972e-05,4.923153123223187e-06,4.851241536104717e-06,0.0001008710110035,6.469658179827525e-05,1.861913533777446e-05,Unknown
0.17679807699999994,5.569442327935988e-05,4.890059050410914e-06,4.90234574874795e-06,0.0001001049853347,6.450332305819175e-05,1.910356550038383e-05,Unknown
0.17731730800000012,5.580065233419927e-05,4.86232528837799e-06,4.957524234289203e-06,9.927481011440812e-05,6.434170096135348e-05,1.9557588520065258e-05,Unknown
0.1778365380000002,5.589698192211724e-05,4.841186847663461e-06,4.9955565593721504e-06,9.842445599760764e-05,6.424314450921846e-05,2.0003901923232427e-05,Unknown
0.1783557689999995,5.596329784041341e-05,4.821811752650536e-06,5.028349954528956e-06,9.761570208568169e-05,6.443088457964421e-05,2.042198355279116e-05,Unknown
0.17887499999999967,5.604693834628396e-05,4.803125257365894e-06,5.075211246059397e-06,9.69119551663153e-05,6.487137126880541e-05,2.0748013579822663e-05,Unknown
0.17939423099999985,5.620214545995089e-05,4.786923504928975e-06,5.147983076216017e-06,9.635389129517736e-05,6.523714751914459e-05,2.096715977407911e-05,Unknown
0.17991346200000002,5.6393301229991865e-05,4.770444675178547e-06,5.237160863388368e-06,9.59495225197973e-05,6.54313749321464e-05,2.1114605179270894e-05,Unknown
0.18043269200000012,5.655113834184191e-05,4.749405651346427e-06,5.31768243427114e-06,9.56844359091876e-05,6.555712784557585e-05,2.1196064014308548e-05,Unknown
0.1809519230000003,5.668570971100336e-05,4.730641125674632e-06,5.375599013868306e-06,9.553560281204206e-05,6.581580301400062e-05,2.1252859272806387e-05,Unknown
0.18147115399999958,5.684686388888895e-05,4.716262706387845e-06,5.417603178777231e-06,9.547478285216658e-05,6.648668489154674e-05,2.1348327899684872e-05,Unknown
0.18199038499999975,5.7099557059543374e-05,4.702258282407704e-06,5.455157142896515e-06,9.546507882173704e-05,6.746137588530835e-05,2.1440848698103906e-05,Unknown
0.18250961499999985,5.742648563117966e-05,4.695744690506379e-06,5.490325935737745e-06,9.546387987470762e-05,6.830613084540662e-05,2.1483911006187446e-05,Unknown
0.18302884600000002,5.76659036185502e-05,4.697554314950488e-06,5.509921829221703e-06,9.543436331125812e-05,6.882002379746633e-05,2.1485817666946333e-05,Unknown
0.1835480770000002,5.775462597856127e-05,4.696909147753409e-06,5.503108952514112e-06,9.535254860629732e-05,6.90404638671569e-05,2.1462012556056105e-05,Unknown
0.18406730799999949,5.777975176121456e-05,4.688513888302817e-06,5.480546640004672e-06,9.520256148360904e-05,6.905053019061161e-05,2.145854616491646e-05,Unknown
0.18458653799999958,5.7794963470465847e-05,4.68457971712463e-06,5.459603351433122e-06,9.49658333190931e-05,6.89561970335286e-05,2.1421986624290412e-05,Unknown
0.18510576899999975,5.782481039528904e-05,4.693658166370867e-06,5.448774903124004e-06,9.4613132631012e-05,6.887547128364234e-05,2.1230907480333742e-05,Unknown
0.18562499999999993,5.787110043471404e-05,4.7008508067133455e-06,5.443152972114129e-06,9.4104867456732e-05,6.893680763687851e-05,2.0986974155043617e-05,Unknown
0.1861442310000001,5.789969567466144e-05,4.701277950762563e-06,5.433381477705953e-06,9.339956304153476e-05,6.92261659742944e-05,2.093270032723283e-05,Unknown
0.18666346200000028,5.789855310158528e-05,4.701091265532234e-06,5.446345264047093e-06,9.24676450820933e-05,6.983031426025749e-05,2.1124132869753624e-05,Unknown
0.18718269199999948,5.7916295774918506e-05,4.69589432942793e-06,5.51518894308337e-06,9.130430434638112e-05,7.09928030107384e-05,2.144985993194578e-05,Unknown
0.18770192299999966,5.82459156568922e-05,4.6824183297621324e-06,5.592741120805134e-06,8.992844041345601e-05,7.28788267315848e-05,2.1828271675149447e-05,Unknown
0.18822115399999984,5.94317609281782e-05,4.659896295032911e-06,5.6211540512530925e-06,8.836196826633255e-05,7.504457938723542e-05,2.224194906739124e-05,Unknown
0.188740385,6.140732235060993e-05,4.631742541370945e-06,5.612573378344234e-06,8.660856331982909e-05,7.674073053169022e-05,2.2693032248629407e-05,Unknown
0.1892596150000001,6.309511240104556e-05,4.60650215815226e-06,5.59192153272604e-06,8.466003246141458e-05,7.775492540283229e-05,2.3179753877642603e-05,Unknown
0.18977884600000028,6.370892993719303e-05,4.585739698458011e-06,5.570345331436224e-06,8.253422082824295e-05,7.838540362324633e-05,2.371663310893168e-05,Unknown
0.19029807699999957,6.371445192127996e-05,4.565626082588019e-06,5.553024576868814e-06,8.031057149891566e-05,7.894438288462595e-05,2.433689130637699e-05,Unknown
0.19081730799999974,6.401363675001399e-05,4.540508702283358e-06,5.5394660053113205e-06,7.811435982749077e-05,7.952985490298954e-05,2.5016491639624694e-05,Unknown
0.19133653799999983,6.478626717488915e-05,4.507840645456619e-06,5.535539773282728e-06,7.604534917624446e-05,8.001296337816539e-05,2.5678331374581425e-05,Unknown
0.191855769,6.558076731091089e-05,4.475566243819441e-06,5.540033264141953e-06,7.41132380710325e-05,8.026267552679467e-05,2.628990973549145e-05,Unknown
0.19237500000000018,6.606790451172174e-05,4.4506270436591705e-06,5.543177919143658e-06,7.223117620727267e-05,8.031483267683517e-05,2.688731237532901e-05,Unknown
0.19289423099999947,6.624881270129788e-05,4.434960759193034e-06,5.544461902523479e-06,7.025220939676081e-05,8.03109933319356e-05,2.751523005862786e-05,Unknown
0.19341346199999965,6.625881401416716e-05,4.429787925597519e-06,5.541930004488028e-06,6.803072195779811e-05,8.036066930689178e-05,2.81693629954901e-05,Unknown
0.19393269199999974,6.628915474986455e-05,4.429749231228003e-06,5.538241883367223e-06,6.554586584170048e-05,8.039663281012222e-05,2.8794142788589908e-05,Unknown
0.19445192299999992,6.649352266480434e-05,4.429598156522853e-06,5.564439666378329e-06,6.30763486842586e-05,8.039693749556407e-05,2.933190825195326e-05,Unknown
0.1949711540000001,6.679847374696651e-05,4.430762108263381e-06,5.6371428792984165e-06,6.117467084943157e-05,8.058471244466434e-05,2.9771094474613256e-05,Unknown
0.19549038500000027,6.702843934662414e-05,4.434789092942607e-06,5.724290663694202e-06,6.02006383037728e-05,8.10329693023864e-05,3.0139931847030844e-05,Unknown
0.19600961499999947,6.715901400963864e-05,4.444035856044318e-06,5.80179799700298e-06,5.99332661668323e-05,8.156280678774118e-05,3.0470164915852416e-05,Unknown
0.19652884599999965,6.724200010365219e-05,4.46154001905096e-06,5.887029999556081e-06,5.991273099695732e-05,8.207922460270559e-05,3.076950642308521e-05,Unknown
0.19704807699999982,6.73157332148613e-05,4.49613365373389e-06,6.023755271974085e-06,5.991026154876679e-05,8.262879186033697e-05,3.1012854349479455e-05,Unknown
0.197567308,6.738001846011042e-05,4.558781424483068e-06,6.251564762303261e-06,5.989175917934656e-05,8.33634298398535e-05,3.117174705127386e-05,Unknown
0.1980865380000001,6.740839512514632e-05,4.646350979498115e-06,6.543481462762952e-06,5.98319609707468e-05,8.443136994144886e-05,3.124854174775872e-05,Unknown
0.19860576900000027,6.741987984291971e-05,4.738484654572485e-06,6.818954934092462e-06,5.962959535352692e-05,8.580423514722025e-05,3.1270180196436105e-05,Unknown
0.19912499999999955,6.745759564885774e-05,4.80752185425408e-06,7.0408379713264094e-06,5.9112197286329017e-05,8.736174251803005e-05,3.1267742557412075e-05,Unknown
0.19964423099999973,6.755030494300184e-05,4.843598912373162e-06,7.233905743415722e-06,5.815929539798399e-05,8.899930041966438e-05,3.126339212331838e-05,Unknown
0.2001634619999999,6.768838543200327e-05,4.861044886264656e-06,7.445245598284416e-06,5.6792933089990833e-05,9.06141830160603e-05,3.126492284633997e-05,Unknown
0.200682692,6.782170947568126e-05,4.88087130838945e-06,7.72780440190073e-06,5.512591747383401e-05,9.212246249785452e-05,3.127717016444158e-05,Unknown
0.20120192300000017,6.792670796174243e-05,4.917457097965828e-06,8.089655326322157e-06,5.327112905633977e-05,9.3481871626149e-05,3.13071619587652e-05,Unknown
0.20172115399999946,6.804068188520617e-05,4.967679217889659e-06,8.453179001615529e-06,5.130859229005192e-05,9.471374521117823e-05,3.136235583438722e-05,Unknown
0.20224038499999963,6.818671333622183e-05,5.017835167016179e-06,8.729875636059242e-06,4.929959350215561e-05,9.588547972880535e-05,3.145900561411493e-05,Unknown
0.20275961499999973,6.83028420775907e-05,5.060501932569548e-06,8.908550111570585e-06,4.73012415139017e-05,9.701027382600668e-05,3.161206675563629e-05,Unknown
0.2032788459999999,6.833611001374581e-05,5.09411051939095e-06,9.034403851574166e-06,4.535744783039709e-05,9.799421471603e-05,3.181551151492705e-05,Unknown
0.20379807700000008,6.832815740517268e-05,5.114903428757492e-06,9.155798036115344e-06,4.347682996301952e-05,9.874253825374797e-05,3.205054941538892e-05,Unknown
0.20431730800000025,6.832049429600476e-05,5.11757016790783e-06,9.293932574630963e-06,4.163003845264895e-05,9.92607651384408e-05,3.231154406172097e-05,Unknown
0.20483653799999946,6.831499733127807e-05,5.100295168395257e-06,9.41260821220495e-06,3.97860483112415e-05,9.961135664598436e-05,3.2614764990720465e-05,Unknown
0.20535576899999963,6.833068308954247e-05,5.069004466692143e-06,9.464164355965484e-06,3.795499070289035e-05,9.982981759937704e-05,3.2971736685978814e-05,Unknown
0.2058749999999998,6.838540058109785e-05,5.038992079480715e-06,9.463597486146465e-06,3.6181673290901606e-05,9.990717047967068e-05,3.33539228397661e-05,Unknown
0.20639423099999998,6.846604793953669e-05,5.020981483304264e-06,9.45577073808037e-06,3.4498090480176425e-05,9.988316344670066e-05,3.370896242514238e-05,Unknown
0.20691346200000016,6.854824601465183e-05,5.017288040455995e-06,9.454322785260588e-06,3.29037005290101e-05,9.989041411086938e-05,3.401660278737155e-05,Unknown
0.20743269200000025,6.862018556486316e-05,5.028636206223133e-06,9.454373414466975e-06,3.139837870919265e-05,9.997559355748108e-05,3.429992879845067e-05,Unknown
0.20795192299999954,6.866917330319131e-05,5.0513466842430415e-06,9.45426362638722e-06,3.002068688504658e-05,0.0001000811158279,3.45916137092619e-05,Unknown
0.20847115399999971,6.867913385952676e-05,5.07782036846136e-06,9.4563118627881e-06,2.8839211225166413e-05,0.0001002061513736,3.489598106544638e-05,Unknown
0.2089903849999999,6.868542706635801e-05,5.10154745933759e-06,9.47332759511303e-06,2.790543880318378e-05,0.0001003749898379,3.5178118401929565e-05,Unknown
0.20950961499999998,6.87393478719872e-05,5.128711972921836e-06,9.517975196193784e-06,2.7223124094524363e-05,0.0001006416695622,3.540531240796701e-05,Unknown
0.21002884600000016,6.880526080826182e-05,5.165069707538026e-06,9.592599053681022e-06,2.675251111242543e-05,0.0001010592339908,3.557991899086651e-05,Unknown
0.21054807699999945,6.883028702457613e-05,5.202628206872549e-06,9.711601688490444e-06,2.6429135952116746e-05,0.0001015384034655,3.57203139192988e-05,Unknown
0.21106730799999962,6.88295936785306e-05,5.234186145794184e-06,9.883537948612498e-06,2.61878175732754e-05,0.0001019820104261,3.5833197964021634e-05,Unknown
0.2115865379999997,6.882058522321098e-05,5.261698371045764e-06,1.0077534975403942e-05,2.5984536978461825e-05,0.0001023993826275,3.590811755005105e-05,Unknown
0.2121057689999999,6.88295896406288e-05,5.291254762488352e-06,1.0279777158444457e-05,2.5805572509464377e-05,0.000102846378564,3.593988902564855e-05,Unknown
0.21262500000000006,6.890300345995316e-05,5.329430082759087e-06,1.0517052461211198e-05,2.565933949033552e-05,0.0001034806419096,3.595252040922842e-05,Unknown
0.21314423100000024,6.902257170417406e-05,5.381649670852551e-06,1.0809361499709805e-05,2.5555375890804446e-05,0.0001044435756247,3.597670868306455e-05,Unknown
0.21366346199999953,6.912164097463318e-05,5.444699627452173e-06,1.115328293663492e-05,2.5490768541708733e-05,0.0001056967202585,3.601210730884424e-05,Unknown
0.21418269199999962,6.916610221922272e-05,5.505597657269074e-06,1.1523834455851024e-05,2.5453768057762683e-05,0.0001071638435147,3.603944626487499e-05,Unknown
0.2147019229999998,6.91900707049562e-05,5.556813313038089e-06,1.1892036659376615e-05,2.543203147453358e-05,0.0001087319191396,3.6052325929992407e-05,Unknown
0.21522115399999997,6.926643074847362e-05,5.6031817290723376e-06,1.224527294864499e-05,2.5417228317902617e-05,0.0001101822461662,3.605607146479745e-05,Unknown
0.21574038500000015,6.946863726022454e-05,5.652535805460216e-06,1.2581787138707976e-05,2.540608719793648e-05,0.000111426134084,3.605358084304871e-05,Unknown
0.21625961500000024,6.988977411761596e-05,5.705117953494855e-06,1.2902089840975748e-05,2.539943306376764e-05,0.0001125915334915,3.604234901881431e-05,Unknown
0.21677884599999953,7.054379019733833e-05,5.755310700359142e-06,1.320874144659198e-05,2.5400226456304623e-05,0.0001138241471991,3.602131159340785e-05,Unknown
0.2172980769999997,7.124084141997116e-05,5.801437117569561e-06,1.3503336332730015e-05,2.5407241255087935e-05,0.0001151512943726,3.599921367635743e-05,Unknown
0.21781730799999988,7.177215707114479e-05,5.846218775861439e-06,1.3784342594759418e-05,2.5407420651547187e-05,0.0001164179490494,3.5985717895979366e-05,Unknown
0.21833653799999997,7.212457110099945e-05,5.890607543605213e-06,1.405099310322607e-05,2.5382092331855274e-05,0.0001173979419999,3.597946547436742e-05,Unknown
0.21885576900000014,7.24076993905581e-05,5.931475946082862e-06,1.4304109818541434e-05,2.53250627234674e-05,0.0001180387641737,3.597586608503769e-05,Unknown
0.21937499999999943,7.271975251295595e-05,5.963403307270348e-06,1.4535110831643454e-05,2.524605874999921e-05,0.0001184722446462,3.5975757475748595e-05,Unknown
0.2198942309999996,7.307828360487465e-05,5.981397560546819e-06,1.4718463966153142e-05,2.5153630743312585e-05,0.0001188573792354,3.598281418211724e-05,Unknown
0.22041346199999978,7.340181491449602e-05,5.985491542072732e-06,1.483381742981633e-05,2.5041368113108856e-05,0.0001192857295348,3.600404946550568e-05,Unknown
0.22093269199999988,7.361560831645707e-05,5.9859585848109405e-06,1.4891850349161355e-05,2.4890257391785905e-05,0.0001196596936764,3.604331081458851e-05,Unknown
0.22145192300000005,7.373452606744827e-05,5.996223244038656e-06,1.4918667710130224e-05,2.468248982494523e-05,0.0001198176581659,3.6087696743439726e-05,Unknown
0.22197115400000023,7.380134472977959e-05,6.011380954110232e-06,1.493436338003224e-05,2.441483174234309e-05,0.0001198184869799,3.612056600022516e-05,Unknown
0.2224903849999995,7.38235206478598e-05,6.020137542569041e-06,1.4948686672629814e-05,2.4097189623661293e-05,0.0001198013225615,3.614124810608302e-05,Unknown
0.2230096149999996,7.37899925193599e-05,6.030490703114551e-06,1.4957637410247886e-05,2.3742049045791e-05,0.0001197930102421,3.61573870306014e-05,Unknown
0.22352884599999978,7.37344652028476e-05,6.0470023496657245e-06,1.495982205598986e-05,2.3363691466456097e-05,0.0001197744749702,3.617224153657159e-05,Unknown
0.22404807699999996,7.37284307718267e-05,6.059955878381145e-06,1.4960189715727592e-05,2.297856577819608e-05,0.0001197305521098,3.618034932888345e-05,Unknown
0.22456730800000013,7.375909012846815e-05,6.064826357844235e-06,1.4958811978837674e-05,2.2590346282474265e-05,0.0001197303282885,3.617793452249824e-05,Unknown
0.22508653800000022,7.374192377482986e-05,6.063913094986344e-06,1.4960260322525208e-05,2.2181653322507452e-05,0.0001198832484563,3.617535888333462e-05,Unknown
0.2256057689999995,7.368081789585045e-05,6.062362878377508e-06,1.49731489573513e-05,2.1730734901260533e-05,0.0001201557118283,3.617847563927837e-05,Unknown
0.2261249999999997,7.364552986094671e-05,6.063112766450937e-06,1.4999176950696044e-05,2.123649762846121e-05,0.0001204545698539,3.617940116909295e-05,Unknown
0.22664423099999986,7.364371960233311e-05,6.061508445439228e-06,1.5038241880037022e-05,2.072696941113433e-05,0.0001207606917503,3.617842799355969e-05,Unknown
0.22716346200000004,7.365585711964727e-05,6.054968778959102e-06,1.5094818624468114e-05,2.023824613921693e-05,0.0001210765813771,3.618578037784778e-05,Unknown
0.22768269200000013,7.37039781170789e-05,6.047048031102831e-06,1.5169311976332033e-05,1.978620662856145e-05,0.0001214056969298,3.620424624716261e-05,Unknown
0.2282019230000003,7.38235400165312e-05,6.043590609638371e-06,1.5258768494010028e-05,1.9362454619913616e-05,0.0001217465304763,3.622711973081219e-05,Unknown
0.2287211539999996,7.401580484761339e-05,6.061455734242844e-06,1.5370696194602104e-05,1.8949905492716677e-05,0.0001221093471831,3.624751965764752e-05,Unknown
0.22924038499999977,7.423321100685593e-05,6.111495753018951e-06,1.552048749228447e-05,1.8537691120676614e-05,0.0001225651960884,3.626287840633043e-05,Unknown
0.22975961499999986,7.443035546074926e-05,6.173269872940428e-06,1.571218729595638e-05,1.8126245142021227e-05,0.0001231679699254,3.627434716412943e-05,Unknown
0.23027884600000004,7.459829969957632e-05,6.220600042358907e-06,1.592335082081738e-05,1.772044448481209e-05,0.0001238402724617,3.628463177967645e-05,Unknown
0.2307980770000002,7.474478769904911e-05,6.24977786714396e-06,1.6124648042176507e-05,1.731735811695023e-05,0.0001244532605787,3.629457683639866e-05,Unknown
0.2313173079999995,7.490301307944993e-05,6.269132712735215e-06,1.631214635905589e-05,1.6904792404994868e-05,0.0001249873802628,3.630329599454669e-05,Unknown
0.2318365379999996,7.51004126416031e-05,6.282726996882915e-06,1.6504801389295137e-05,1.6476030035863702e-05,0.0001255319151339,3.631011711568204e-05,Unknown
0.23235576899999977,7.530068223711573e-05,6.2899415534768965e-06,1.671826931121613e-05,1.604613070481911e-05,0.0001261542693988,3.631464054272421e-05,Unknown
0.23287499999999994,7.545723184834354e-05,6.291916101336616e-06,1.6943870135493745e-05,1.565011757094717e-05,0.0001267711961765,3.631811622533222e-05,Unknown
0.23339423100000012,7.556154551713018e-05,6.2881269722801816e-06,1.7155994819054527e-05,1.5315820036597127e-05,0.0001272198509032,3.632245641772967e-05,Unknown
0.2339134620000003,7.562158298884898e-05,6.27645168495952e-06,1.7342130202842263e-05,1.5035899456294475e-05,0.0001274891550143,3.632850783515154e-05,Unknown
0.2344326919999995,7.569585477661303e-05,6.269642580056898e-06,1.7514569242014445e-05,1.4771875751537883e-05,0.0001277059443857,3.633657408006174e-05,Unknown
0.23495192299999967,7.583287418857418e-05,6.280755187794336e-06,1.7693776909222314e-05,1.448068009213252e-05,0.0001280180124545,3.6346161969747714e-05,Unknown
0.23547115399999985,7.59621290818743e-05,6.294967523248523e-06,1.788545264087916e-05,1.4141696443750417e-05,0.0001285094043895,3.6356404843694886e-05,Unknown
0.23599038500000002,7.602170435695858e-05,6.299105086045454e-06,1.807161062822656e-05,1.378098763702602e-05,0.0001290263766232,3.636650330896772e-05,Unknown
0.23650961500000012,7.604808942563075e-05,6.300605526894935e-06,1.822742062394992e-05,1.3465921406899503e-05,0.0001293482506999,3.63760496189593e-05,Unknown
0.2370288460000003,7.60790009667828e-05,6.305028515636132e-06,1.834273456946764e-05,1.3251289666047854e-05,0.0001294933649078,3.638479453363629e-05,Unknown
0.23754807699999958,7.612956030236702e-05,6.314015547518547e-06,1.8422876613711085e-05,1.313707880415812e-05,0.0001295742122732,3.639074366398696e-05,Unknown
0.23806730799999976,7.617133705082135e-05,6.324612052469269e-06,1.847953029242072e-05,1.3088693162820046e-05,0.000129649762983,3.639263052473958e-05,Unknown
0.23858653799999985,7.615282514207859e-05,6.32918931436024e-06,1.8521340830870404e-05,1.3074239505483484e-05,0.0001297693994514,3.6392490158623786e-05,Unknown
0.23910576900000002,7.61049192802097e-05,6.328396251077347e-06,1.85489290744846e-05,1.3074645499875569e-05,0.0001299176680236,3.6390449494018384e-05,Unknown
0.2396250000000002,7.607723549509815e-05,6.32733761587472e-06,1.8562698129181177e-05,1.3075328835695411e-05,0.0001300381607146,3.638686655911431e-05,Unknown
0.2401442309999995,7.605454941023902e-05,6.327640630546538e-06,1.8564079088850293e-05,1.3054406901798457e-05,0.0001301141440484,3.638794703108158e-05,Unknown
0.24066346199999966,7.602561031791778e-05,6.323061342836148e-06,1.8554306925076956e-05,1.2985367825138868e-05,0.0001301349216508,3.6395226019358624e-05,Unknown
0.24118269199999975,7.60216674649074e-05,6.30784451748876e-06,1.854306820893989e-05,1.2857689983351894e-05,0.0001300990641635,3.640214135755586e-05,Unknown
0.24170192299999993,7.604295247229665e-05,6.296769635994872e-06,1.854167152536856e-05,1.2684525244356636e-05,0.0001300461200304,3.640499902328477e-05,Unknown
0.2422211540000001,7.604195721173411e-05,6.298875007433186e-06,1.85466108975133e-05,1.2485601754056467e-05,0.0001300083061898,3.64051997198937e-05,Unknown
0.24274038500000028,7.602288341275316e-05,6.302124630110612e-06,1.8547041876967423e-05,1.2272465628827698e-05,0.0001299785742544,3.6405475777325145e-05,Unknown
0.24325961499999949,7.6043657604133e-05,6.304498641197906e-06,1.8548690554331175e-05,1.2050559725929336e-05,0.0001299383295907,3.640610031162371e-05,Unknown
0.24377884599999966,7.613049458199864e-05,6.307391817851099e-06,1.8571444308006804e-05,1.1825113669897242e-05,0.0001298792333474,3.640608314280831e-05,Unknown
0.24429807699999984,7.627888703852215e-05,6.3054073113926935e-06,1.862282984962549e-05,1.1598134603861263e-05,0.0001298352967554,3.6407183484680885e-05,Unknown
0.244817308,7.649621605389566e-05,6.3036591486252746e-06,1.8690476217694933e-05,1.1363112062630047e-05,0.0001298410729541,3.640936170745521e-05,Unknown
0.2453365380000001,7.677085833760108e-05,6.303249551664842e-06,1.8755957981629017e-05,1.1118593166375909e-05,0.0001298717357581,3.6409980929931165e-05,Unknown
0.24585576900000028,7.701547960778183e-05,6.298307932168419e-06,1.881342868484156e-05,1.0885213830349675e-05,0.0001299150564715,3.640989695997094e-05,Unknown
0.24637499999999957,7.714052623345981e-05,6.305123456128193e-06,1.888233330787045e-05,1.0677685660674904e-05,0.0001299988113424,3.640998559860986e-05,Unknown
0.24689423099999974,7.716981115210022e-05,6.337230159829958e-06,1.897972257256558e-05,1.0472267906908874e-05,0.0001301689874039,3.641017813680164e-05,Unknown
0.24741346199999992,7.716947561933394e-05,6.378198251850829e-06,1.908036584004799e-05,1.0227178612038915e-05,0.0001304677591974,3.641329895881264e-05,Unknown
0.247932692,7.716934722868095e-05,6.412433773839944e-06,1.914828514790945e-05,9.92778747294316e-06,0.0001308276756652,3.641729688216753e-05,Unknown
0.24845192300000019,7.719169549324169e-05,6.437146322282938e-06,1.9185161387645805e-05,9.626445822970616e-06,0.0001311372730846,3.641804075108213e-05,Unknown
0.24897115399999947,7.723520630823585e-05,6.449909658507928e-06,1.921424644467982e-05,9.39516543233722e-06,0.000131382457843,3.641804004420983e-05,Unknown
0.24949038499999965,7.727976493386454e-05,6.453102429204073e-06,1.9262319094714576e-05,9.23372786607708e-06,0.0001316099789369,3.641735653619213e-05,Unknown
0.25000961499999974,7.73197753001623e-05,6.456184116513349e-06,1.9348695690013672e-05,9.084972994169086e-06,0.0001318855950379,3.6413987506513016e-05,Sitting down
0.2505288459999999,7.736714442253976e-05,6.461019143437944e-06,1.9450694890712112e-05,8.887637339464258e-06,0.0001322232979852,3.641201947508688e-05,Sitting down
0.2510480770000001,7.742487966781374e-05,6.463091208210875e-06,1.952716152286357e-05,8.615293366180625e-06,0.000132537738443,3.641308440375431e-05,Sitting down
0.25156730800000027,7.745382425630108e-05,6.463727657306975e-06,1.957423489725335e-05,8.310573662147196e-06,0.0001327650474601,3.641348164138301e-05,Sitting down
0.25208653799999947,7.743220717176869e-05,6.463038272333746e-06,1.9613605428440505e-05,8.040868217948113e-06,0.0001329093825011,3.641279722850311e-05,Sitting down
0.25260576899999965,7.741330923069748e-05,6.466491814816152e-06,1.966035160780036e-05,7.828338865395253e-06,0.0001329993607827,3.6411944954827326e-05,Sitting down
0.2531249999999998,7.742777677216858e-05,6.481765326570809e-06,1.971644314012654e-05,7.652991258370817e-06,0.0001331121995666,3.641029605464377e-05,Sitting down
0.253644231,7.737144043091478e-05,6.495232726133731e-06,1.977231681883982e-05,7.492133293926298e-06,0.000133293328755,3.640858897736634e-05,Sitting down
0.2541634620000002,7.671505433034281e-05,6.496589364562106e-06,1.9820275448464293e-05,7.343722230590271e-06,0.000133496969507,3.640751444027204e-05,Sitting down
0.25468269200000027,7.442055875412067e-05,6.49122510268475e-06,1.9860189383827606e-05,7.223351351976866e-06,0.0001336966416657,3.640672825544112e-05,Sitting down
0.25520192299999955,7.067322412299893e-05,6.477479329890227e-06,1.98898833959908e-05,7.140144203779984e-06,0.0001338612004122,3.640583946419481e-05,Sitting down
0.25572115399999973,6.771118914606309e-05,6.460388783714326e-06,1.991007430681796e-05,7.081026322426414e-06,0.0001339258099913,3.640495767540228e-05,Sitting down
0.2562403849999999,6.671021409741652e-05,6.452575357246417e-06,1.992734431756175e-05,7.02469578350272e-06,0.0001339178117498,3.6404748508871433e-05,Sitting down
0.256759615,6.669997410112834e-05,6.451901606944371e-06,1.9945100896403635e-05,6.962361154041282e-06,0.0001339336411246,3.640547453007789e-05,Sitting down
0.25727884600000017,6.691847321725658e-05,6.4519119606236434e-06,1.996183026305878e-05,6.900616736092584e-06,0.0001340245858422,3.640636140664112e-05,Sitting down
0.25779807699999946,6.719414408722268e-05,6.452241230558632e-06,1.9972400361735515e-05,6.854367962972871e-06,0.0001341736096798,3.640665715563611e-05,Sitting down
0.25831730799999963,6.739413373812668e-05,6.449628647494829e-06,1.9971936753564176e-05,6.831355154956389e-06,0.0001342976057095,3.6406701746744925e-05,Sitting down
0.2588365379999997,6.742832948685248e-05,6.437852596877978e-06,1.996426416867522e-05,6.821579225785586e-06,0.0001343368970842,3.640752879080238e-05,Sitting down
0.2593557689999999,6.73104409835726e-05,6.414855481749729e-06,1.9959351899346685e-05,6.814742480235352e-06,0.0001343370156391,3.6410723407434337e-05,Sitting down
0.2598750000000001,6.716263371816798e-05,6.386442297457527e-06,1.995957946119123e-05,6.811835680382652e-06,0.0001343441362084,3.641569309264277e-05,Sitting down
0.26039423100000025,6.709321834073021e-05,6.361873798319678e-06,1.996006530834124e-05,6.812060205863203e-06,0.0001343469398863,3.6419038360480975e-05,Sitting down
0.26091346199999954,6.707404497042311e-05,6.346119593094493e-06,1.996006053666021e-05,6.812166853569128e-06,0.0001343450738781,3.642009434057418e-05,Sitting down
0.26143269199999963,6.701801783177157e-05,6.338585643249313e-06,1.995972712666064e-05,6.80938446659492e-06,0.0001343136709693,3.641966985979569e-05,Sitting down
0.2619519229999998,6.687674254011615e-05,6.33621249629197e-06,1.9958121680018516e-05,6.796587836896069e-06,0.0001342956817901,3.641803970784818e-05,Sitting down
0.262471154,6.666850927773793e-05,6.33647699477494e-06,1.9957959782384332e-05,6.776883097589465e-06,0.0001344354678718,3.641870629381298e-05,Sitting down
0.26299038500000016,6.64993746240015e-05,6.337862674836473e-06,1.996250011449442e-05,6.766196826122368e-06,0.0001346907808271,3.642261911997947e-05,Sitting down
0.26350961500000025,6.643208500205645e-05,6.33856444142097e-06,1.997029080110857e-05,6.766733996970653e-06,0.0001348931396276,3.642574510238575e-05,Sitting down
0.26402884599999954,6.638536811500667e-05,6.337091446426908e-06,1.997624622858392e-05,6.76713956018773e-06,0.0001350040280624,3.642731753690814e-05,Sitting down
0.2645480769999997,6.626162660542985e-05,6.334497531982985e-06,1.9992349198115656e-05,6.765638086589498e-06,0.0001350720006787,3.642987606666202e-05,Sitting down
0.2650673079999999,6.601684394274018e-05,6.3333914844035056e-06,2.003040832614929e-05,6.767357112104715e-06,0.0001352053234419,3.643545420924439e-05,Sitting down
0.265586538,6.568222261334341e-05,6.333817812206489e-06,2.006296413959219e-05,6.769610559252845e-06,0.0001354676104986,3.644292438745032e-05,Sitting down
0.26610576900000016,6.54031553684589e-05,6.333131135464067e-06,2.007179721317657e-05,6.767880142160443e-06,0.0001357404608365,3.644628884347277e-05,Sitting down
0.26662499999999945,6.527035497346985e-05,6.330627430066464e-06,2.0072425572982382e-05,6.765637044643996e-06,0.0001359170227195,3.644439537227948e-05,Sitting down
0.2671442309999996,6.521945792812795e-05,6.326250572651604e-06,2.007023285624633e-05,6.767165084577584e-06,0.0001360260133074,3.6444256248145206e-05,Sitting down
0.2676634619999998,6.51749013386158e-05,6.320791608321094e-06,2.00731470091026e-05,6.772127179131473e-06,0.0001361098133137,3.644868836581687e-05,Sitting down
0.2681826919999999,6.510043795379366e-05,6.31909344607465e-06,2.009556686174693e-05,6.777118627302106e-06,0.0001361828767898,3.6454873011666864e-05,Sitting down
0.26870192300000006,6.499246957749567e-05,6.319823248825811e-06,2.012861283421944e-05,6.774693580110141e-06,0.0001362366029998,3.6460806760035486e-05,Sitting down
0.26922115400000024,6.489041252552216e-05,6.306924413557831e-06,2.0153319092319708e-05,6.7622828022028455e-06,0.0001362544370112,3.646573728190696e-05,Sitting down
0.2697403849999995,6.4826943748325e-05,6.269208537211347e-06,2.016432047589828e-05,6.748122095279323e-06,0.0001362538528199,3.647024924182387e-05,Sitting down
0.2702596149999996,6.480156327787326e-05,6.2235967856844125e-06,2.0167267662959497e-05,6.7379781019651e-06,0.0001362610455423,3.647420551860423e-05,Sitting down
0.2707788459999998,6.4800595295422e-05,6.195474880921429e-06,2.016792179876788e-05,6.729882655772599e-06,0.0001362693674493,3.647477758366914e-05,Sitting down
0.27129807699999997,6.479518336357295e-05,6.186698833534553e-06,2.0168246050576968e-05,6.720090528525877e-06,0.0001362649455503,3.6471658458366537e-05,Sitting down
0.27181730800000015,6.475488747167443e-05,6.185319466141934e-06,2.0170032325785605e-05,6.7026920108695325e-06,0.0001362484317144,3.646863320203996e-05,Sitting down
0.27233653800000024,6.469257266894796e-05,6.186371359428194e-06,2.0177339998462768e-05,6.670346135902973e-06,0.0001362256317529,3.646774684412332e-05,Sitting down
0.2728557689999995,6.463902866807055e-05,6.190564781783345e-06,2.0188814943364036e-05,6.614975448662566e-06,0.0001361926856676,3.646771151110031e-05,Sitting down
0.2733749999999997,6.460100442039081e-05,6.1963034530933125e-06,2.0197299566050043e-05,6.535333961111165e-06,0.0001361131729284,3.646771005776225e-05,Sitting down
0.2738942309999999,6.456275348104966e-05,6.196086540483752e-06,2.020120265915408e-05,6.457173757864354e-06,0.0001359524989755,3.646772532869892e-05,Sitting down
0.27441346200000005,6.45118757440325e-05,6.187720512824908e-06,2.02032060180674e-05,6.4108603920135095e-06,0.0001357357502937,3.646766032733489e-05,Sitting down
0.27493269200000015,6.447976845076334e-05,6.178300188983665e-06,2.0204889587626797e-05,6.389140463506163e-06,0.0001354917066696,3.646667041873122e-05,Sitting down
0.27545192299999943,6.448176426277234e-05,6.1694268555345086e-06,2.02071863957272e-05,6.368984687022432e-06,0.0001351809605761,3.646405854893279e-05,Sitting down
0.2759711539999996,6.451668837320077e-05,6.162921586286682e-06,2.0209276131989266e-05,6.334838445400911e-06,0.0001347208619748,3.646224702616007e-05,Sitting down
0.2764903849999998,6.457980670610452e-05,6.1633189130758605e-06,2.0210971540039893e-05,6.276367655903406e-06,0.0001341140072207,3.646205743882365e-05,Sitting down
0.2770096149999999,6.458312572164261e-05,6.167928935818362e-06,2.0212801922933083e-05,6.204862152580385e-06,0.0001335568797219,3.646294411234439e-05,Sitting down
0.27752884600000005,6.452316240302734e-05,6.172016131830501e-06,2.021360558137906e-05,6.143591392004932e-06,0.0001332517284417,3.646519625321343e-05,Sitting down
0.2780480770000002,6.450847917748045e-05,6.170835160933113e-06,2.0214703031240015e-05,6.101520453110686e-06,0.0001331497537102,3.646486036990666e-05,Sitting down
0.2785673079999995,6.451519645893662e-05,6.1614804651418975e-06,2.0215788927346596e-05,6.073369768850519e-06,0.0001330787872838,3.646181655704416e-05,Sitting down
0.2790865379999996,6.449055521099334e-05,6.143884313496741e-06,2.021358917569033e-05,6.042391154524956e-06,0.0001329566656072,3.646094224131744e-05,Sitting down
0.2796057689999998,6.449596063961744e-05,6.125419931352868e-06,2.0211731437873147e-05,5.994361832831503e-06,0.00013278067783,3.646129964193912e-05,Sitting down
0.28012499999999996,6.451903291872232e-05,6.1186166800413146e-06,2.0212035981607507e-05,5.932399021717327e-06,0.0001326421580723,3.646219706066843e-05,Sitting down
0.28064423100000013,6.442691759610619e-05,6.122972972040825e-06,2.0211570977805584e-05,5.861235351180119e-06,0.0001326496032687,3.646175123501476e-05,Sitting down
0.2811634620000003,6.4179394765711e-05,6.129760430838473e-06,2.0211002893262107e-05,5.7817964822586085e-06,0.0001327274192208,3.645475004685619e-05,Sitting down
0.2816826919999995,6.390425418101313e-05,6.134975611593271e-06,2.0211025563574183e-05,5.700161116583432e-06,0.0001327203483908,3.644689055379045e-05,Sitting down
0.2822019229999997,6.374377412319072e-05,6.137092105255996e-06,2.021302253418584e-05,5.621855653892146e-06,0.0001325991799937,3.644507877538532e-05,Sitting down
0.28272115399999986,6.371856524476483e-05,6.136290251876104e-06,2.0217971434864427e-05,5.551930491231165e-06,0.0001324031323461,3.644542186167855e-05,Sitting down
0.28324038500000004,6.374992364627584e-05,6.137583194152194e-06,2.022457419358325e-05,5.496832906524547e-06,0.0001321198660662,3.644366486537661e-05,Sitting down
0.28375961500000013,6.37708057610246e-05,6.142695383611886e-06,2.023270625721341e-05,5.4586309152206455e-06,0.0001316981964732,3.643549488066519e-05,Sitting down
0.2842788460000003,6.377914755488686e-05,6.1460863621684535e-06,2.0243597918235847e-05,5.43464971154698e-06,0.0001311372873532,3.6417198649277793e-05,Sitting down
0.2847980769999996,6.380009824831311e-05,6.143789105812898e-06,2.0257056594399946e-05,5.420669385074058e-06,0.0001305413299827,3.639348423458953e-05,Sitting down
0.28531730799999977,6.387696886716739e-05,6.135525070748896e-06,2.0267539226174096e-05,5.413215226812443e-06,0.0001300309741701,3.637054122642266e-05,Sitting down
0.28583653799999986,6.402555027501926e-05,6.127120142416079e-06,2.0269747412965264e-05,5.409643811734862e-06,0.000129642223964,3.634782309796028e-05,Sitting down
0.28635576900000004,6.416660606867395e-05,6.1247157405507805e-06,2.0267117657977407e-05,5.40817963184772e-06,0.0001293705192565,3.632234816291514e-05,Sitting down
0.2868750000000002,6.423758590439189e-05,6.125895571410161e-06,2.026662263775053e-05,5.409041781979993e-06,0.0001291908011086,3.629211776493916e-05,Sitting down
0.2873942309999995,6.426232051365776e-05,6.127535592754597e-06,2.0270328501636165e-05,5.413690534934876e-06,0.0001290393074859,3.625439904542923e-05,Sitting down
0.2879134619999997,6.427122415740461e-05,6.128944166450026e-06,2.027679993506516e-05,5.418711792192686e-06,0.0001288582066118,3.620480678279225e-05,Sitting down
0.28843269199999977,6.434791069837037e-05,6.128082096956718e-06,2.0283609464202385e-05,5.417826652785402e-06,0.0001286283408907,3.6140124092835816e-05,Sitting down
0.28895192299999994,6.452140064053958e-05,6.124986010837821e-06,2.0288293659468957e-05,5.416172427752312e-06,0.0001284049586248,3.60716689962484e-05,Sitting down
0.2894711540000001,6.464993520721882e-05,6.12369058344206e-06,2.029095678351287e-05,5.421084602504164e-06,0.0001282834122953,3.60209726815724e-05,Sitting down
0.2899903850000003,6.472041440498462e-05,6.124716685299779e-06,2.029204200889561e-05,5.425039617580488e-06,0.0001282715301044,3.599088957103386e-05,Sitting down
0.2905096149999995,6.477067304108751e-05,6.124150955265171e-06,2.02916450128569e-05,5.4172800454169225e-06,0.0001282947242862,3.597013442378931e-05,Sitting down
0.2910288459999997,6.476505636992788e-05,6.126169383945088e-06,2.028858899255593e-05,5.392763609025198e-06,0.0001282840402,3.595407320952907e-05,Sitting down
0.29154807699999985,6.482689447407287e-05,6.137532478542389e-06,2.0283792836441432e-05,5.347824694415807e-06,0.0001282070929566,3.594138630770763e-05,Sitting down
0.292067308,6.486798569563864e-05,6.1474556167566325e-06,2.028213504703179e-05,5.290272775484048e-06,0.0001281331408546,3.593330295929564e-05,Sitting down
0.2925865380000001,6.458063817456134e-05,6.144241421899331e-06,2.028232969020979e-05,5.237715636641347e-06,0.0001281669156023,3.593220721232802e-05,Sitting down
0.2931057690000003,6.40295219255345e-05,6.132868899891499e-06,2.027996855851469e-05,5.19266759755198e-06,0.0001282574008068,3.593305340961261e-05,Sitting down
0.2936249999999996,6.349201149344302e-05,6.118359008880243e-06,2.0276105708547625e-05,5.14176658339788e-06,0.0001283067028916,3.592905540336329e-05,Sitting down
0.29414423099999976,6.30730878750924e-05,6.106375837860685e-06,2.027287193800751e-05,5.0710894949776e-06,0.0001283216700099,3.591873962708197e-05,Sitting down
0.29466346199999993,6.277105212191304e-05,6.1021804479643645e-06,2.027030564601528e-05,4.98289503612422e-06,0.000128318570416,3.5901248653147626e-05,Sitting down
0.295182692,6.261549273830858e-05,6.102019185072126e-06,2.0268654546015428e-05,4.904494623502417e-06,0.0001283135596988,3.58716425909016e-05,Sitting down
0.2957019230000002,6.260629190521714e-05,6.101382309997565e-06,2.0267402242193276e-05,4.856616465769772e-06,0.0001283102132296,3.582048715165251e-05,Sitting down
0.2962211539999995,6.262083478660709e-05,6.1002624771240615e-06,2.0266515199515257e-05,4.829846826053415e-06,0.0001282657683173,3.574020914552272e-05,Sitting down
0.29674038499999966,6.257888682954357e-05,6.102800145992889e-06,2.026592131030381e-05,4.802600694149049e-06,0.0001282013219519,3.563143717418257e-05,Sitting down
0.29725961499999976,6.255206705657346e-05,6.108541119840086e-06,2.0262344875211024e-05,4.757477291513894e-06,0.0001281834693782,3.54991984368125e-05,Sitting down
0.29777884599999993,6.256360997019546e-05,6.111771898264695e-06,2.025723385953045e-05,4.694988101449709e-06,0.0001282182277615,3.5346793603284566e-05,Sitting down
0.2982980770000001,6.256957761610767e-05,6.111399632651232e-06,2.0253229056746004e-05,4.638649923929386e-06,0.0001282813812381,3.517742339265432e-05,Sitting down
0.2988173080000003,6.256974425549606e-05,6.110436682884833e-06,2.0250159756989268e-05,4.609004501590928e-06,0.0001283395254298,3.499470663998801e-05,Sitting down
0.2993365379999995,6.256940398986038e-05,6.110353400242845e-06,2.0252761106300487e-05,4.602718990629064e-06,0.0001283636245758,3.479130201130494e-05,Sitting down
0.29985576899999966,6.256951031087326e-05,6.111087101747657e-06,2.0258273482397107e-05,4.60388916465365e-06,0.0001283621837949,3.454739027872195e-05,Sitting down
0.30037499999999984,6.257672985129265e-05,6.107972242747217e-06,2.0259605887191093e-05,4.603961377761271e-06,0.0001283459485569,3.425159972526423e-05,Sitting down
0.300894231,6.260633972152536e-05,6.092659426528516e-06,2.0259585700035364e-05,4.60477310184911e-06,0.0001283321613344,3.392450530851108e-05,Sitting down
0.3014134620000002,6.26282953539498e-05,6.072279866879702e-06,2.025581025735488e-05,4.606212310975755e-06,0.0001283426302859,3.3610777345192256e-05,Sitting down
0.3019326920000003,6.258269629453278e-05,6.067732959910364e-06,2.024381309670415e-05,4.606178963893776e-06,0.0001283455403406,3.333125988952025e-05,Sitting down
0.30245192299999957,6.248730774959595e-05,6.090094974110588e-06,2.023055157922248e-05,4.608478235276416e-06,0.000128340621762,3.306698387845627e-05,Sitting down
0.30297115399999974,6.240105831786062e-05,6.124463396600591e-06,2.0221323155129777e-05,4.6123855142591724e-06,0.0001283347753134,3.279898035017077e-05,Sitting down
0.3034903849999999,6.234775158099285e-05,6.141803534767336e-06,2.0213488344786292e-05,4.608758648782607e-06,0.0001282148899322,3.254136026758304e-05,Sitting down
0.304009615,6.228808829162196e-05,6.142316880892639e-06,2.0202230142020364e-05,4.599750811526269e-06,0.0001279728369379,3.2332331096725166e-05,Sitting down
0.3045288460000002,6.215860644752673e-05,6.147787566089256e-06,2.018358290928159e-05,4.59734713678114e-06,0.0001277826096367,3.2189116568371674e-05,Sitting down
0.3050480769999995,6.198118698343504e-05,6.1614716442366765e-06,2.015907842838107e-05,4.59932415888407e-06,0.0001276920126094,3.20896823553569e-05,Sitting down
0.30556730799999965,6.182564872971526e-05,6.17223152139824e-06,2.013710208924734e-05,4.597032189803166e-06,0.0001276064450023,3.2006244161388785e-05,Sitting down
0.30608653799999974,6.170042577383917e-05,6.171051700626337e-06,2.012405194746124e-05,4.592525045010273e-06,0.000127418637715,3.192465297928312e-05,Sitting down
0.3066057689999999,6.156187030747607e-05,6.164261121137091e-06,2.011754021250803e-05,4.587581842301396e-06,0.0001270273777046,3.184492272386496e-05,Sitting down
0.3071250000000001,6.134535191290221e-05,6.162878834442044e-06,2.0110844519268728e-05,4.580495422482315e-06,0.000126495920125,3.178453252767371e-05,Sitting down
0.30764423100000027,6.106225102725751e-05,6.164484748766073e-06,2.009910177514713e-05,4.568354417630511e-06,0.0001260321392431,3.175564610512276e-05,Sitting down
0.30816346199999956,6.084865674571401e-05,6.167979592431719e-06,2.00836896889026e-05,4.547481767157572e-06,0.0001257309157795,3.1747764429049424e-05,Sitting down
0.30868269199999965,6.07693459807975e-05,6.176297602904809e-06,2.0071150201173105e-05,4.5258157558204535e-06,0.000125550222034,3.1746922250850494e-05,Sitting down
0.3092019229999998,6.075387622992327e-05,6.185101333264233e-06,2.0065625890770576e-05,4.513301693310935e-06,0.0001254468793336,3.174765045666882e-05,Sitting down
0.309721154,6.074339481869221e-05,6.184842050134238e-06,2.00649158659268e-05,4.506215043242061e-06,0.0001254155349312,3.174655726682949e-05,Sitting down
0.3102403850000002,6.071970581649337e-05,6.177244546332039e-06,2.0065488634506906e-05,4.502279593983348e-06,0.0001254383244139,3.173297896565029e-05,Sitting down
0.31075961500000027,6.069372097479542e-05,6.177350226339615e-06,2.0067028529346945e-05,4.501898356343882e-06,0.0001254331480938,3.168263862391406e-05,Sitting down
0.31127884599999955,6.070014066318128e-05,6.191195065459181e-06,2.0069497899451476e-05,4.495424825663947e-06,0.0001252816780777,3.157145113822241e-05,Sitting down
0.31179807699999973,6.07409477931334e-05,6.217281819154146e-06,2.0065812410577923e-05,4.484668525634041e-06,0.0001249050909578,3.1399562279952825e-05,Sitting down
0.3123173079999999,6.074461260329869e-05,6.2451199074994285e-06,2.005220214311257e-05,4.481401602148342e-06,0.0001242046231614,3.118151250000916e-05,Sitting down
0.312836538,6.042948116652e-05,6.255874271893685e-06,2.004736399449172e-05,4.4815561238492985e-06,0.0001230937401187,3.092241854539958e-05,Sitting down
0.3133557690000002,5.926270644502137e-05,6.2516586537660766e-06,2.0061158101866055e-05,4.479934614987738e-06,0.0001218048419565,3.062333317991825e-05,Sitting down
0.31387499999999946,5.721886948323372e-05,6.249151490554643e-06,2.0075262915009117e-05,4.478481444576122e-06,0.0001207686308693,3.0275263657348786e-05,Sitting down
0.31439423099999964,5.5383375214969136e-05,6.252323376484991e-06,2.0080373061787955e-05,4.477556764782676e-06,0.0001201220559455,2.9846272968015747e-05,Sitting down
0.3149134619999998,5.4717291623600686e-05,6.254973346190531e-06,2.0081670040592945e-05,4.477600060597017e-06,0.0001197148964498,2.930787804816315e-05,Sitting down
0.3154326919999999,5.4725509931969136e-05,6.25248115843287e-06,2.0082634147451627e-05,4.477583355848622e-06,0.0001193554287591,2.8666176976218856e-05,Sitting down
0.3159519230000001,5.437496074060707e-05,6.247882159664997e-06,2.00833356958352e-05,4.474461445720631e-06,0.0001189658855493,2.797169635689841e-05,Sitting down
0.31647115400000025,5.3450129858664943e-05,6.2476488775106205e-06,2.0080003595632497e-05,4.4638123307987775e-06,0.0001186355584584,2.7292528010529477e-05,Sitting down
0.31699038499999954,5.2480104083375415e-05,6.249905469631552e-06,2.0076127631341448e-05,4.449902484862022e-06,0.0001184280966024,2.6653765009234133e-05,Sitting down
0.31750961499999963,5.19101361823958e-05,6.250456417132908e-06,2.0080410886465603e-05,4.442735628582986e-06,0.00011832297343,2.601969242225036e-05,Sitting down
0.3180288459999998,5.173170328633515e-05,6.250318336749327e-06,2.008858856698107e-05,4.43745267206467e-06,0.0001182964737297,2.534023570699476e-05,Sitting down
0.318548077,5.173547301018646e-05,6.251134421136158e-06,2.0091998759626077e-05,4.4254810578455045e-06,0.000118285203726,2.4605163260437476e-05,Sitting down
0.31906730800000016,5.169919511848252e-05,6.252646643776891e-06,2.0091604928759284e-05,4.397393179055519e-06,0.0001182738461867,2.386589545203311e-05,Sitting down
0.31958653800000025,5.143816260209647e-05,6.253112614196496e-06,2.008423479391027e-05,4.339148979051884e-06,0.0001182696678244,2.3197058246371964e-05,Sitting down
0.32010576899999954,5.1033984691130464e-05,6.251951094344343e-06,2.0063172314608804e-05,4.266091256142591e-06,0.0001181140206396,2.2628317180123923e-05,Sitting down
0.3206249999999997,5.0734314064428367e-05,6.24907551381378e-06,2.003946807382799e-05,4.216273081495077e-06,0.0001177129741138,2.2134252333331867e-05,Sitting down
0.3211442309999999,5.057459563078271e-05,6.241912394165863e-06,2.0025270377634597e-05,4.1991620509966255e-06,0.000117239093365,2.1678213661135915e-05,Sitting down
0.32166346200000007,5.045958002561238e-05,6.231040811017567e-06,2.0009535249673415e-05,4.197885757400326e-06,0.0001168374333627,2.125279523345865e-05,Sitting down
0.32218269200000016,5.034684462554911e-05,6.218529739572705e-06,1.997201045916713e-05,4.199757443189473e-06,0.0001164537384328,2.0896231972255865e-05,Sitting down
0.32270192299999945,5.0262316050001695e-05,6.192357429779784e-06,1.990178845842967e-05,4.191550182975471e-06,0.0001159356107,2.06579987539139e-05,Sitting down
0.3232211539999996,5.022954896678244e-05,6.13935229774015e-06,1.9807837543460677e-05,4.160514855248186e-06,0.0001151477969088,2.054123340618301e-05,Sitting down
0.3237403849999998,5.021707472543864e-05,6.071828303275778e-06,1.971412737862281e-05,4.114021022487819e-06,0.0001140951399971,2.05021526261299e-05,Sitting down
0.3242596149999999,5.017245704355943e-05,6.014841443559289e-06,1.9636587421578888e-05,4.070162363328483e-06,0.0001128921179036,2.04945845788946e-05,Sitting down
0.32477884600000007,5.004352178170982e-05,5.976717274481222e-06,1.9572768475730623e-05,4.036963001232352e-06,0.0001116053291504,2.0494247788509597e-05,Sitting down
0.32529807700000024,4.985166760144872e-05,5.946591886280077e-06,1.9504744037072325e-05,4.013966389005675e-06,0.0001102711073599,2.0493415844283103e-05,Sitting down
0.32581730799999953,4.9687480829797657e-05,5.90943326647096e-06,1.940592004124828e-05,3.996712935783769e-06,0.000108952723756,2.047944408045944e-05,Sitting down
0.3263365379999996,4.958862239676655e-05,5.856759476104731e-06,1.9262995622149035e-05,3.975901041597424e-06,0.0001077108024743,2.0434704975195256e-05,Sitting down
0.3268557689999998,4.948504917963482e-05,5.795379385202105e-06,1.910010484185217e-05,3.942535861757161e-06,0.0001065849347873,2.0346559390140303e-05,Sitting down
0.32737499999999997,4.931653109067132e-05,5.740003217086246e-06,1.896436909127815e-05,3.901518332670202e-06,0.000105522700095,2.0194285441270047e-05,Sitting down
0.32789423100000015,4.916878085347267e-05,5.697177205454556e-06,1.8877016230625638e-05,3.882311572213789e-06,0.0001044462608402,1.995404839817636e-05,Sitting down
0.32841346199999943,4.913196583691446e-05,5.666982169004923e-06,1.8819949343493896e-05,3.899969583841367e-06,0.0001034407328301,1.9629916261275743e-05,Sitting down
0.3289326919999995,4.917544853278093e-05,5.65026681742988e-06,1.8764754192120108e-05,3.914598648331956e-06,0.0001026330778671,1.924662485341876e-05,Sitting down
0.3294519229999997,4.925279915970371e-05,5.6450499639619815e-06,1.869818755969834e-05,3.898182363515971e-06,0.0001020300547143,1.880571525007824e-05,Sitting down
0.3299711539999999,4.9316898404026486e-05,5.644287379555061e-06,1.863594467399829e-05,3.8807203427802735e-06,0.0001016338598911,1.8275341402359132e-05,Sitting down
0.33049038500000005,4.931196042736433e-05,5.643929134863673e-06,1.86014074930234e-05,3.880058710789311e-06,0.0001014545193752,1.7626127460218124e-05,Sitting down
0.33100961500000015,4.923671740054013e-05,5.64390686900203e-06,1.859295251030999e-05,3.880406311357564e-06,0.0001014360765136,1.688853390927099e-05,Sitting down
0.33152884599999943,4.91234263466175e-05,5.643008572047104e-06,1.8593016738010808e-05,3.8792520251743645e-06,0.0001014799891347,1.6155341942730018e-05,Sitting down
0.3320480769999996,4.9008081918354006e-05,5.635851160247669e-06,1.859307392527656e-05,3.881593442480808e-06,0.000101458961695,1.548499239172525e-05,Sitting down
0.3325673079999998,4.892289947285446e-05,5.618453273740378e-06,1.859714204210433e-05,3.883957675673076e-06,0.0001013354306387,1.484007438406424e-05,Sitting down
0.3330865379999999,4.887893294791216e-05,5.597877367754353e-06,1.860895858231096e-05,3.884060891144765e-06,0.0001012018634976,1.413855079213451e-05,Sitting down
0.33360576900000005,4.88767319234005e-05,5.58159177660136e-06,1.862307252811053e-05,3.882976412059159e-06,0.0001010891639478,1.33447553347673e-05,Sitting down
0.3341250000000002,4.8869115740434885e-05,5.56408558585662e-06,1.8627573597229227e-05,3.883286918893477e-06,0.0001009338474638,1.2522564162175096e-05,Sitting down
0.3346442309999995,4.879182572916022e-05,5.534509511446104e-06,1.8613117948371443e-05,3.879501799567924e-06,0.0001006638130948,1.17749320334245e-05,Sitting down
0.3351634619999997,4.8695992452949744e-05,5.494738386421255e-06,1.857640866239075e-05,3.858838905587079e-06,0.0001002460698879,1.1134736469523357e-05,Sitting down
0.3356826919999998,4.8660328563512414e-05,5.458984049436595e-06,1.851491900632648e-05,3.821457309762065e-06,9.97595748301714e-05,1.056293771807878e-05,Sitting down
0.33620192299999996,4.865820160703641e-05,5.433245111012616e-06,1.842713801739762e-05,3.782571931938568e-06,9.931522625711686e-05,1.0020983703515814e-05,Sitting down
0.33672115400000013,4.866091182830058e-05,5.409669805762275e-06,1.8318389153906856e-05,3.753922570860653e-06,9.890354516494118e-05,9.51402320757706e-06,Sitting down
0.3372403850000003,4.865740522003823e-05,5.376952220972763e-06,1.819506959147093e-05,3.734327373513768e-06,9.839620688507308e-05,9.080431540359814e-06,Sitting down
0.3377596149999995,4.862392516102032e-05,5.323873852630469e-06,1.8052868063217664e-05,3.7157646921241055e-06,9.764871240792056e-05,8.746319937498914e-06,Sitting down
0.3382788459999997,4.85895684342379e-05,5.244234173969954e-06,1.7879125022474645e-05,3.689704555377847e-06,9.659747449957244e-05,8.504987882585228e-06,Sitting down
0.33879807699999986,4.8564901645687445e-05,5.147713405630704e-06,1.7667735503528496e-05,3.646998413354937e-06,9.527958375388463e-05,8.337003228671604e-06,Sitting down
0.33931730800000004,4.851152525202666e-05,5.054089003686604e-06,1.7428391174795667e-05,3.589766732068795e-06,9.3705375374037e-05,8.22734761517208e-06,Sitting down
0.33983653800000013,4.8425149102948966e-05,4.972197231964585e-06,1.7177653054321004e-05,3.5376212683132822e-06,9.184366853310956e-05,8.162876000030468e-06,Sitting down
0.3403557690000003,4.829110209713104e-05,4.896158608594295e-06,1.6926237186041753e-05,3.5016043016209597e-06,8.98409218924079e-05,8.12892939447291e-06,Sitting down
0.3408749999999996,4.801937464384603e-05,4.819786807598924e-06,1.667818970166158e-05,3.471548774457434e-06,8.794903374003539e-05,8.114426002683262e-06,Sitting down
0.34139423099999977,4.745361578291207e-05,4.745100847868863e-06,1.6434743917615865e-05,3.4374543209849697e-06,8.620161517167561e-05,8.113197543213602e-06,Sitting down
0.34191346199999995,4.651852033964377e-05,4.677700738099999e-06,1.6193641542282293e-05,3.3966750773649494e-06,8.44408847855512e-05,8.11510857549343e-06,Sitting down
0.34243269200000004,4.545114390512544e-05,4.617651059347988e-06,1.5948610296987633e-05,3.349252098911475e-06,8.256600795921377e-05,8.099135222163167e-06,Sitting down
0.3429519230000002,4.459921602338861e-05,4.559994209380408e-06,1.5695515600678365e-05,3.3094474610557192e-06,8.073590106292942e-05,8.0581543186774e-06,Sitting down
0.3434711539999995,4.40151058129836e-05,4.502240176234176e-06,1.5436568045717194e-05,3.2933315698987968e-06,7.929041921771647e-05,8.017815215634094e-06,Sitting down
0.3439903849999997,4.355272469906509e-05,4.4478422200157415e-06,1.5179127773865585e-05,3.29185714582573e-06,7.832404458500266e-05,7.992553153254264e-06,Sitting down
0.34450961499999977,4.3089806049242936e-05,4.4040481678175134e-06,1.4942745476054397e-05,3.292117884964431e-06,7.762114910743517e-05,7.964068941942777e-06,Sitting down
0.34502884599999994,4.256533628257889e-05,4.378868587491178e-06,1.475811674470634e-05,3.293197625991652e-06,7.697261815499355e-05,7.912564754152206e-06,Sitting down
0.3455480770000001,4.204143790276432e-05,4.374984221942255e-06,1.4641634736448829e-05,3.293251222015196e-06,7.629746331907197e-05,7.797047609351825e-06,Sitting down
0.3460673080000003,4.162601468585762e-05,4.380035349752036e-06,1.4581887530394137e-05,3.2958152038567235e-06,7.571177435511889e-05,7.582863302409695e-06,Sitting down
0.3465865379999995,4.1328135473895016e-05,4.371822497991344e-06,1.4552202676593731e-05,3.306258746262318e-06,7.542149677964504e-05,7.34199715119271e-06,Sitting down
0.3471057689999997,4.109564409080816e-05,4.344811588045222e-06,1.4533984989815068e-05,3.3120697168577503e-06,7.538257618083276e-05,7.165311472257218e-06,Sitting down
0.34762499999999985,4.089230556198367e-05,4.314029263268309e-06,1.4527987752857303e-05,3.2985997173739576e-06,7.539366666644771e-05,7.039526433293802e-06,Sitting down
0.348144231,4.071132286864623e-05,4.2869300182435404e-06,1.4534087484185925e-05,3.27928911384175e-06,7.539366723262378e-05,6.938219703109036e-06,Sitting down
0.3486634620000002,4.056712573500479e-05,4.2620558789028e-06,1.454390781197943e-05,3.2723001530552325e-06,7.540188541791712e-05,6.851833715133397e-06,Sitting down
0.3491826920000003,4.047683923098082e-05,4.244335637654471e-06,1.4552393936482998e-05,3.272213725890186e-06,7.54007338715975e-05,6.787380121110442e-06,Sitting down
0.3497019229999996,4.0451813124943086e-05,4.237415462692513e-06,1.4555757580777149e-05,3.2717803760010937e-06,7.530488072500064e-05,6.7743500452663705e-06,Sitting down
0.35022115399999976,4.048818788156369e-05,4.235963053596626e-06,1.4549336840580682e-05,3.272299766477144e-06,7.502994294110073e-05,6.777208507139808e-06,Sitting down
0.35074038499999993,4.056455114501925e-05,4.235459838726818e-06,1.4532721238962909e-05,3.2715421438372552e-06,7.46485402106446e-05,6.762900982871149e-06,Sitting down
0.351259615,4.064260893092097e-05,4.235620584752257e-06,1.4505959460898258e-05,3.2682600476101192e-06,7.426716840467765e-05,6.766590476398033e-06,Sitting down
0.3517788460000002,4.0694275033706056e-05,4.236394776882553e-06,1.4464388375827869e-05,3.26671543411354e-06,7.383189514400209e-05,6.781860851484359e-06,Sitting down
0.3522980769999995,4.0715126885457e-05,4.237352516400753e-06,1.4405473144448515e-05,3.2666149236728807e-06,7.329944443356415e-05,6.751369821245998e-06,Sitting down
0.35281730799999966,4.069162392658632e-05,4.238132222548928e-06,1.433148904195347e-05,3.2585582064147533e-06,7.273050381946162e-05,6.663863720234814e-06,Sitting down
0.35333653799999976,4.058686380179973e-05,4.234473618376921e-06,1.4241772215451515e-05,3.2315528688733607e-06,7.215644931745232e-05,6.56388442812436e-06,Sitting down
0.35385576899999993,4.033784278272749e-05,4.202168406622921e-06,1.4123655679387236e-05,3.185801889408953e-06,7.154013604230596e-05,6.5004170977143394e-06,Sitting down
0.3543750000000001,3.995204322010243e-05,4.129240243165571e-06,1.3957386970046722e-05,3.1386982655583413e-06,7.075358488826504e-05,6.472409397344394e-06,Sitting down
0.3548942310000003,3.956395756623633e-05,4.0523603295594135e-06,1.373872013611711e-05,3.108775230634004e-06,6.969840382785643e-05,6.434006982048742e-06,Sitting down
0.35541346199999957,3.924748128082535e-05,4.002377988207345e-06,1.349293767958496e-05,3.0933186862634877e-06,6.853853110979895e-05,6.375807033073079e-06,Sitting down
0.35593269199999966,3.894835641577656e-05,3.969844600932726e-06,1.3252490906093815e-05,3.0757952580079306e-06,6.750173257308816e-05,6.322116946307337e-06,Sitting down
0.35645192299999984,3.8597399123707645e-05,3.943069836945872e-06,1.3023688976145267e-05,3.044888317028277e-06,6.656581874304706e-05,6.275135138137438e-06,Sitting down
0.356971154,3.815861713614133e-05,3.923455200609695e-06,1.2788199821720888e-05,3.0007213875679298e-06,6.555641311400827e-05,6.235507933540755e-06,Sitting down
0.3574903850000002,3.7711794524402506e-05,3.913879873553597e-06,1.2524810499520184e-05,2.961863363969476e-06,6.436721345043323e-05,6.208469037958907e-06,Sitting down
0.3580096150000003,3.738763259982937e-05,3.911894778641229e-06,1.2228789435333224e-05,2.9464478053409485e-06,6.318428988998539e-05,6.184808564322809e-06,Sitting down
0.35852884599999957,3.71837284235017e-05,3.913056472806731e-06,1.192995441342796e-05,2.9456165066217647e-06,6.236421630999235e-05,6.166396403405741e-06,Sitting down
0.35904807699999974,3.7008443086482464e-05,3.913693414961008e-06,1.1655556152052032e-05,2.947662712167596e-06,6.190742494002712e-05,6.154423987982529e-06,Sitting down
0.3595673079999999,3.67726780610163e-05,3.906209683789744e-06,1.1393387565863878e-05,2.9510289336983702e-06,6.149902042247347e-05,6.121176851726706e-06,Sitting down
0.360086538,3.6461775984436906e-05,3.885166783675794e-06,1.111870431863478e-05,2.9468302602901003e-06,6.084223628077489e-05,6.063991473516601e-06,Sitting down
0.3606057690000002,3.619266017809488e-05,3.861707398624879e-06,1.0816840527465228e-05,2.929098914547942e-06,5.974516345615428e-05,6.007509132776122e-06,Sitting down
0.3611249999999995,3.605453412665542e-05,3.848946621057633e-06,1.0505705092713984e-05,2.9020092211845158e-06,5.846375532609443e-05,5.944862115296888e-06,Sitting down
0.36164423099999965,3.6000019894218896e-05,3.8436705441814845e-06,1.023142864844884e-05,2.8724898601602464e-06,5.756299212113082e-05,5.879035613502758e-06,Sitting down
0.3621634619999998,3.5947313277443896e-05,3.8366949502299895e-06,1.0020343921957544e-05,2.8478399397824566e-06,5.716251176702654e-05,5.839386659193976e-06,Sitting down
0.3626826919999999,3.583936972378754e-05,3.82054699001022e-06,9.865115511072556e-06,2.8269560654399324e-06,5.698308389925811e-05,5.828713639260941e-06,Sitting down
0.3632019230000001,3.568654830364303e-05,3.802039308001799e-06,9.750936244398813e-06,2.806784711495137e-06,5.680591985089833e-05,5.830726166774085e-06,Sitting down
0.36372115400000027,3.555907975153528e-05,3.793861734950453e-06,9.674143612355532e-06,2.802256864735956e-06,5.654735208257986e-05,5.833362961495941e-06,Sitting down
0.36424038499999956,3.547854068219119e-05,3.789734300031816e-06,9.63517837314491e-06,2.834387290766195e-06,5.628415968112854e-05,5.834202648838481e-06,Sitting down
0.36475961499999965,3.543375221050421e-05,3.78284832633824e-06,9.622503788840132e-06,2.880558354429984e-06,5.611233836552171e-05,5.835528284764893e-06,Sitting down
0.3652788459999998,3.544725551158452e-05,3.768312608009189e-06,9.618662272115132e-06,2.898002358348713e-06,5.598514598418839e-05,5.829724936197806e-06,Sitting down
0.365798077,3.54618557656052e-05,3.746144433430397e-06,9.616670819994084e-06,2.892862487249083e-06,5.5884949815053935e-05,5.807157528964038e-06,Sitting down
0.3663173080000002,3.530726929826707e-05,3.7283158685179207e-06,9.615858267175797e-06,2.8856665889776726e-06,5.5840594355770445e-05,5.771444125464907e-06,Sitting down
0.36683653800000027,3.502399668322762e-05,3.717887781422898e-06,9.611117275214716e-06,2.879595310481169e-06,5.585798604723698e-05,5.749019159811343e-06,Sitting down
0.36735576899999955,3.486862416458801e-05,3.7189064499086458e-06,9.601922569215142e-06,2.878465231707682e-06,5.599727516505546e-05,5.761961875701964e-06,Sitting down
0.36787499999999973,3.486152702433826e-05,3.7273906460397934e-06,9.600198049012562e-06,2.8788454541330488e-06,5.620454427138914e-05,5.779337091410835e-06,Sitting down
0.3683942309999999,3.481383279426892e-05,3.729707940877878e-06,9.603638622342296e-06,2.8762473086394605e-06,5.631260351899055e-05,5.775167208817361e-06,Sitting down
0.3689134620000001,3.462752913122629e-05,3.7272149254939662e-06,9.568423972942492e-06,2.862962820285357e-06,5.631432259123805e-05,5.795262558377291e-06,Sitting down
0.3694326920000002,3.429271966631056e-05,3.7256875259563537e-06,9.458572164199898e-06,2.829664440292888e-06,5.620511666138677e-05,5.867467268990311e-06,Sitting down
0.36995192299999946,3.3791228027414824e-05,3.725789369445082e-06,9.316358627084294e-06,2.7928496650315205e-06,5.600494254401939e-05,5.943613851686351e-06,Sitting down
0.37047115399999964,3.314330398446601e-05,3.728820868762689e-06,9.196988421367902e-06,2.772390203411751e-06,5.595564318938701e-05,5.987963421153873e-06,Sitting down
0.3709903849999998,3.2569904706614135e-05,3.7307626716110544e-06,9.08282223651816e-06,2.768468000272492e-06,5.606415181131821e-05,6.0119416231585e-06,Sitting down
0.3715096149999999,3.231676092782591e-05,3.712498293529309e-06,8.927692791385633e-06,2.793093604279737e-06,5.602432375216383e-05,6.03800301236207e-06,Sitting down
0.3720288460000001,3.228531334828068e-05,3.657641084968298e-06,8.714736450086804e-06,2.840495256255688e-06,5.566392637230043e-05,6.079064935890351e-06,Sitting down
0.37254807700000026,3.227987361946038e-05,3.578406462787188e-06,8.495475895627109e-06,2.867668960526841e-06,5.494853843169568e-05,6.113241886561574e-06,Sitting down
0.37306730799999954,3.2272472350358214e-05,3.505605895508789e-06,8.35073004920118e-06,2.869274976715481e-06,5.405127008317165e-05,6.118049253079115e-06,Sitting down
0.37358653799999963,3.222055876903166e-05,3.4583657115868583e-06,8.279055978708922e-06,2.8700150804386336e-06,5.330436980777185e-05,6.114857845349416e-06,Sitting down
0.3741057689999998,3.2117763204130046e-05,3.431395062486693e-06,8.216521087926662e-06,2.872685255198984e-06,5.27509082572455e-05,6.11486299622677e-06,Sitting down
0.374625,3.2034964918027883e-05,3.412068810396177e-06,8.099328724717961e-06,2.875409675354534e-06,5.219774191028764e-05,6.114066492339214e-06,Sitting down
0.37514423100000016,3.197087259462319e-05,3.3951662305919246e-06,7.888142017759814e-06,2.8776267115392616e-06,5.149683991435084e-05,6.124847382608671e-06,Sitting down
0.37566346199999945,3.186599969623044e-05,3.384531416645904e-06,7.633455723947594e-06,2.8791559435992253e-06,5.063062777519817e-05,6.136660111150447e-06,Sitting down
0.37618269199999954,3.170766913060612e-05,3.3847412554132333e-06,7.431083582279535e-06,2.881826423938769e-06,4.980333905152796e-05,6.138778722834076e-06,Sitting down
0.3767019229999997,3.1586989998161214e-05,3.3925167777219324e-06,7.299216982403336e-06,2.8798895967659216e-06,4.925993739920431e-05,6.1489975956964125e-06,Sitting down
0.3772211539999999,3.1566931832280726e-05,3.400966784688795e-06,7.190375129787222e-06,2.8738822645634435e-06,4.898552579600459e-05,6.16849872571404e-06,Sitting down
0.37774038500000007,3.1552661044331563e-05,3.394714771853271e-06,7.06376301394681e-06,2.875559377288324e-06,4.877486576202883e-05,6.179220865971658e-06,Sitting down
0.37825961500000016,3.1475398578245515e-05,3.368148705848985e-06,6.915666505520766e-06,2.88481236509318e-06,4.849382547931682e-05,6.178247514958658e-06,Sitting down
0.37877884599999945,3.141059861615178e-05,3.346225180006157e-06,6.768030921877532e-06,2.8889961357856365e-06,4.820593174148589e-05,6.176186886916588e-06,Sitting down
0.3792980769999996,3.138322232840618e-05,3.343089594084224e-06,6.635091559529342e-06,2.888573469943752e-06,4.818088877037468e-05,6.176792898698012e-06,Sitting down
0.3798173079999998,3.135380113145269e-05,3.3414685174128715e-06,6.516415426659003e-06,2.890644154702813e-06,4.84878755870588e-05,6.177510770105706e-06,Sitting down
0.3803365379999999,3.1341827172353586e-05,3.3310147876801293e-06,6.412430631472799e-06,2.885771303662006e-06,4.872054985484204e-05,6.180077090890783e-06,Sitting down
0.38085576900000007,3.133210504116339e-05,3.3191970805791502e-06,6.329805170061134e-06,2.8729756816409863e-06,4.861251272912914e-05,6.196258074885909e-06,Sitting down
0.38137500000000024,3.129286558357966e-05,3.313694568887814e-06,6.271306031882775e-06,2.8661803019117117e-06,4.833670011164419e-05,6.237488401595016e-06,Sitting down
0.38189423099999953,3.115381039717339e-05,3.3141847719583397e-06,6.227085350317323e-06,2.8670103084107927e-06,4.804571046304303e-05,6.276776743192638e-06,Sitting down
0.3824134619999997,3.0729524208175894e-05,3.314691211690355e-06,6.183817717053133e-06,2.870231285580397e-06,4.777017637731666e-05,6.2854370252094864e-06,Sitting down
0.3829326919999998,3.009194415868789e-05,3.3145052453897394e-06,6.147487384987789e-06,2.863299440678438e-06,4.751618884692146e-05,6.282366339785347e-06,Sitting down
0.383451923,2.956565887131821e-05,3.319252531777279e-06,6.135354634455101e-06,2.8521581238222884e-06,4.732016328540524e-05,6.280231217172974e-06,Sitting down
0.38397115400000015,2.920769803727476e-05,3.3268341126446164e-06,6.135265260933862e-06,2.85824741433151e-06,4.728168194630002e-05,6.2748906950992245e-06,Sitting down
0.38449038499999943,2.8897819091498303e-05,3.330155383939312e-06,6.128317496400128e-06,2.8650453958469484e-06,4.733547166146312e-05,6.259576347866467e-06,Sitting down
0.3850096149999995,2.8555662511748654e-05,3.330164012588364e-06,6.128711894042489e-06,2.863345359236658e-06,4.746145533326492e-05,6.230799687674532e-06,Sitting down
0.3855288459999997,2.811799330652194e-05,3.3357725977274665e-06,6.136199429242049e-06,2.8713914359892914e-06,4.778698879955704e-05,6.209135427140624e-06,Sitting down
