Time,Rectus Femoris,Vastus Medialis,Vastus Lateralis,Bicep Femoris,Tibialis,Gastrocnemius Medialis,Activity
0.0,1.5975150738716047e-05,3.0489149252963976e-06,3.5244780241201163e-06,7.614393303035633e-06,4.116064389249474e-05,1.569030955162718e-05,Unknown
0.0005192310000001754,1.5975420453552114e-05,3.0469953814684786e-06,3.5292811200715357e-06,7.765802987869552e-06,4.09137206999078e-05,1.5830136716095157e-05,Unknown
0.0010384620000003508,1.5974984868455252e-05,3.0424299530856253e-06,3.5300773925148038e-06,8.00871907117964e-06,4.090435105684197e-05,1.594310189177013e-05,Unknown
0.0015576919999995553,1.5977308051189103e-05,3.046413594514195e-06,3.530628622804061e-06,8.267884516754583e-06,4.075667834132456e-05,1.5992410705740977e-05,Unknown
0.0020769229999997307,1.5981719347958213e-05,3.0675128513625203e-06,3.531991395941373e-06,8.454731969795894e-06,4.014930527421138e-05,1.6015330307632068e-05,Unknown
0.002596153999999906,1.59991799518712e-05,3.09331869721433e-06,3.5334626080315486e-06,8.546470688115265e-06,3.968557479625935e-05,1.605181144193611e-05,Unknown
0.0031153850000000816,1.603244164724799e-05,3.105161212053315e-06,3.531318459584265e-06,8.576326839239462e-06,3.987190496097666e-05,1.614357622134064e-05,Unknown
0.0036346150000001742,1.6051165248874306e-05,3.096005036165543e-06,3.529937438630128e-06,8.581262387177942e-06,4.041842477409022e-05,1.6313666633410926e-05,Unknown
0.00415384600000035,1.604626618260528e-05,3.078958582801744e-06,3.532971073227348e-06,8.580904649998754e-06,4.084768714102243e-05,1.65216598320959e-05,Unknown
0.004673076999999637,1.6040528208040497e-05,3.071354636723672e-06,3.5331677520914984e-06,8.580843417887193e-06,4.094979994545995e-05,1.6684355678865936e-05,Unknown
0.005192307999999812,1.604298177585872e-05,3.070833302197376e-06,3.5239119591884844e-06,8.581176957562225e-06,4.09304231806368e-05,1.6750176078216424e-05,Unknown
0.005711537999999905,1.6056132332138245e-05,3.072840597446916e-06,3.49777485733218e-06,8.585287765243014e-06,4.12223838693265e-05,1.6753555939057123e-05,Unknown
0.00623076900000008,1.607379638590357e-05,3.0765817704331253e-06,3.4604967498911703e-06,8.594234406966803e-06,4.182749026988789e-05,1.6764156967979326e-05,Unknown
0.006750000000000256,1.6081425540016806e-05,3.0736900490791244e-06,3.434474388243293e-06,8.59956934824723e-06,4.216278874476666e-05,1.6790461095335857e-05,Unknown
0.007269230999999543,1.6081890602091465e-05,3.0728873212083687e-06,3.426602452297817e-06,8.599068819875724e-06,4.214504814753581e-05,1.6801249713441525e-05,Unknown
0.0077884619999997184,1.6081517478209078e-05,3.0905576125650045e-06,3.426980650688702e-06,8.600803297080774e-06,4.2430778538336574e-05,1.6801187841299566e-05,Unknown
0.008307691999999811,1.6085553504061096e-05,3.1176127595208256e-06,3.430033028903049e-06,8.603810501640333e-06,4.277641145803378e-05,1.681937988807785e-05,Unknown
0.008826922999999987,1.6098689290764665e-05,3.1399312335856944e-06,3.4388812611163653e-06,8.602789839728845e-06,4.277691422776784e-05,1.6864952028593875e-05,Unknown
0.009346154000000162,1.610688015478855e-05,3.158078315274762e-06,3.4572252521117925e-06,8.60208923990137e-06,4.356504492308378e-05,1.6924873841502145e-05,Unknown
0.009865385000000337,1.610546732877243e-05,3.1789050187646805e-06,3.480952900474236e-06,8.60821057689332e-06,4.5242916870310745e-05,1.6983638625879447e-05,Unknown
0.010384614999999542,1.6106049916445073e-05,3.2007995698365085e-06,3.499749039732892e-06,8.62556187458401e-06,4.623913986406761e-05,1.703408882233549e-05,Unknown
0.010903845999999717,1.6104816391753452e-05,3.210939531768332e-06,3.5080850580005736e-06,8.646950784555401e-06,4.635384964313403e-05,1.7081603212352706e-05,Unknown
0.011423076999999893,1.6100819579881692e-05,3.2073342846956208e-06,3.509852271214007e-06,8.65079194514828e-06,4.63804587143527e-05,1.7142664705031068e-05,Unknown
0.011942308000000068,1.6100954865381993e-05,3.20852832470169e-06,3.50949884120329e-06,8.634244675155818e-06,4.645515938334444e-05,1.7228219338365607e-05,Unknown
0.01246153800000016,1.6101229472685635e-05,3.2339156671672736e-06,3.5081235922065875e-06,8.615160204509763e-06,4.647953491451494e-05,1.731120724866115e-05,Unknown
0.012980769000000336,1.6099946051115993e-05,3.282815239092187e-06,3.507201458952029e-06,8.59832835266064e-06,4.6487364767840056e-05,1.7338401963402785e-05,Unknown
0.013499999999999623,1.609327785702998e-05,3.334423578816422e-06,3.5069868495988105e-06,8.580007039295768e-06,4.652242536065001e-05,1.734522999760817e-05,Unknown
0.014019230999999799,1.6079896921089218e-05,3.366309693472116e-06,3.505654234398439e-06,8.562326364330101e-06,4.660479849878347e-05,1.749120758718741e-05,Unknown
0.014538461999999974,1.607416843635076e-05,3.3743784326257684e-06,3.5017107505404533e-06,8.54599584173436e-06,4.665082760918826e-05,1.784208036533264e-05,Unknown
0.015057692000000067,1.607860466725167e-05,3.371863539026286e-06,3.495203840752671e-06,8.530300869895056e-06,4.6636329856607474e-05,1.823906434548803e-05,Unknown
0.015576923000000242,1.6083932674409514e-05,3.3688554361426435e-06,3.489883018961056e-06,8.51781856729733e-06,4.664875951796503e-05,1.851340256956255e-05,Unknown
0.01609615399999953,1.608516035784876e-05,3.36532566876172e-06,3.492252983393406e-06,8.510123460196524e-06,4.667552423034615e-05,1.8657301489204124e-05,Unknown
0.016615384999999705,1.6075877586515103e-05,3.3582362333733547e-06,3.5023902546444016e-06,8.504926274120165e-06,4.664699883025724e-05,1.874376835815744e-05,Unknown
0.017134614999999798,1.6066119681876316e-05,3.344652072393639e-06,3.514381636334734e-06,8.50161925093368e-06,4.653036689367527e-05,1.883046015803117e-05,Unknown
0.017653845999999973,1.607385529115109e-05,3.325453163835746e-06,3.5269473135435517e-06,8.503833987773792e-06,4.62825896796051e-05,1.8948447733689952e-05,Unknown
0.01817307700000015,1.6086839801051682e-05,3.307103475501992e-06,3.545584427803559e-06,8.510995365101151e-06,4.594020385531306e-05,1.9108411403022703e-05,Unknown
0.018692308000000324,1.6088941996165034e-05,3.295269868381285e-06,3.57738707339011e-06,8.514208612241997e-06,4.569464211860147e-05,1.930556843240688e-05,Unknown
0.01921153799999953,1.6089152774657553e-05,3.290691774330546e-06,3.617369173621452e-06,8.50631755754494e-06,4.5662296778867104e-05,1.9524943228565364e-05,Unknown
0.019730768999999704,1.608986440580405e-05,3.291055642996458e-06,3.6446671032614463e-06,8.489942557858067e-06,4.567522741062964e-05,1.975164401656252e-05,Unknown
0.02024999999999988,1.608686091583228e-05,3.2907783234174663e-06,3.649347348709084e-06,8.47378487331446e-06,4.5585916517702286e-05,1.999162397398741e-05,Unknown
0.020769231000000055,1.609182623436657e-05,3.2886540961340352e-06,3.643105261599293e-06,8.464600599355718e-06,4.553701269452e-05,2.0266951882251612e-05,Unknown
0.02128846200000023,1.6102059458775488e-05,3.290232017080378e-06,3.6342770403982527e-06,8.460998726406284e-06,4.561850751089058e-05,2.0554877754818285e-05,Unknown
0.021807692000000323,1.6105355780737176e-05,3.293890940490695e-06,3.618082298532679e-06,8.455749323510668e-06,4.570067189104376e-05,2.074867125540673e-05,Unknown
0.02232692299999961,1.610430882694023e-05,3.2959486603643474e-06,3.5878863229607477e-06,8.44719712982508e-06,4.575373328261184e-05,2.078987835020269e-05,Unknown
0.022846153999999785,1.6092462229936396e-05,3.297463991418077e-06,3.5526239346487856e-06,8.444156928966155e-06,4.583333758550952e-05,2.0797523896323216e-05,Unknown
0.02336538499999996,1.607178134933751e-05,3.2970630767522123e-06,3.534313653439832e-06,8.453782327377632e-06,4.588266875876487e-05,2.087473580416809e-05,Unknown
0.023884615000000053,1.6065100463839768e-05,3.2953895658958428e-06,3.533009345854561e-06,8.468789554588882e-06,4.586677759072133e-05,2.096090440831353e-05,Unknown
0.02440384600000023,1.6069471078660135e-05,3.2907367581827883e-06,3.534880369489803e-06,8.474967308715007e-06,4.583780920462149e-05,2.100360524319076e-05,Unknown
0.024923076999999516,1.606978530486602e-05,3.2827160205287277e-06,3.529685886678933e-06,8.465829314779778e-06,4.5841180581128905e-05,2.102562535946135e-05,Unknown
0.02544230799999969,1.6067080776130414e-05,3.2795178531822247e-06,3.508991707458617e-06,8.444318052873352e-06,4.595333512986077e-05,2.10544378270424e-05,Unknown
0.025961537999999784,1.6059549281929287e-05,3.2770875052810216e-06,3.486700403600043e-06,8.419553175178632e-06,4.6223533266252575e-05,2.109778187296406e-05,Unknown
0.02648076899999996,1.6055767485523323e-05,3.270945595605726e-06,3.4783977825717017e-06,8.401063054056669e-06,4.652641520836669e-05,2.1138017339476565e-05,Unknown
0.027000000000000135,1.6061435977284244e-05,3.276412825603021e-06,3.477429537820724e-06,8.391189834189593e-06,4.670841463759508e-05,2.1160242719201048e-05,Unknown
0.02751923100000031,1.6060158991544823e-05,3.301462035383105e-06,3.477968404883128e-06,8.38818591089272e-06,4.675997825836706e-05,2.1170030771074777e-05,Unknown
0.028038461999999598,1.6052599734379093e-05,3.3338262861418272e-06,3.481374457777663e-06,8.394460434638106e-06,4.673239358054123e-05,2.117649560297383e-05,Unknown
0.02855769199999969,1.6050836187082423e-05,3.3607549512567457e-06,3.496236001868132e-06,8.415388210752917e-06,4.6663695358149326e-05,2.1184341815570012e-05,Unknown
0.029076922999999866,1.6052497512012796e-05,3.378542748755128e-06,3.5274659123185578e-06,8.446072764461672e-06,4.662231301746343e-05,2.1193491358868983e-05,Unknown
0.02959615400000004,1.6053751821633578e-05,3.387799215456506e-06,3.5554256121959823e-06,8.474407268252836e-06,4.667249217929707e-05,2.1200632397125376e-05,Unknown
0.030115385000000217,1.6052702241906283e-05,3.3881984846411324e-06,3.5629715174343614e-06,8.498819589378075e-06,4.67621590426572e-05,2.1204401315907256e-05,Unknown
0.03063461500000031,1.6046964975562244e-05,3.378831319151241e-06,3.5614698377238865e-06,8.527689254700167e-06,4.684206379584802e-05,2.1206425284980944e-05,Unknown
0.031153845999999596,1.604055641282041e-05,3.3635772260406093e-06,3.5645997420036264e-06,8.555979307678933e-06,4.697876723215774e-05,2.120882779940764e-05,Unknown
0.03167307699999977,1.603581748229238e-05,3.352617654609306e-06,3.568507497510941e-06,8.554785834313333e-06,4.7411082175585344e-05,2.121379910623499e-05,Unknown
0.03219230799999995,1.6031269196527038e-05,3.3517199846848974e-06,3.5688425119608163e-06,8.525084249659099e-06,4.8363101666321965e-05,2.122232267493612e-05,Unknown
0.03271153800000004,1.6032200265872172e-05,3.352778806179164e-06,3.570261321241865e-06,8.515734920642457e-06,4.952726421939279e-05,2.1231094481814e-05,Unknown
0.033230769000000215,1.603430892124247e-05,3.3460109050887757e-06,3.576676931151366e-06,8.546486095627484e-06,5.049616469158864e-05,2.1236177822614457e-05,Unknown
0.0337499999999995,1.603285835450248e-05,3.333024647555392e-06,3.5873956877301025e-06,8.592421374761228e-06,5.126848928757489e-05,2.123835102706365e-05,Unknown
0.03426923099999968,1.603909044747802e-05,3.3191998764835502e-06,3.5960355264928998e-06,8.633716481039532e-06,5.18942917222631e-05,2.124042262956532e-05,Unknown
0.03478846199999985,1.604816293282687e-05,3.309656514556623e-06,3.593382043061558e-06,8.665247219817831e-06,5.22147987145535e-05,2.124504699156849e-05,Unknown
0.035307691999999946,1.6050573485649205e-05,3.312567503628461e-06,3.585688659453776e-06,8.681795281660834e-06,5.2243697221366695e-05,2.1251643321165037e-05,Unknown
0.03582692300000012,1.604853033808536e-05,3.3274039186568217e-06,3.591131130919036e-06,8.677399205696805e-06,5.22467597989676e-05,2.125436301991876e-05,Unknown
0.0363461540000003,1.6035763102616282e-05,3.342256107034766e-06,3.6021053236388434e-06,8.661979072713488e-06,5.219928449673303e-05,2.1252946279718005e-05,Unknown
0.036865384999999584,1.6024702045321777e-05,3.3486601327386216e-06,3.602396253930357e-06,8.651962751386543e-06,5.206235772157584e-05,2.1252258873031067e-05,Unknown
0.03738461499999968,1.603301065533859e-05,3.34499231960827e-06,3.607112332523824e-06,8.648354315536086e-06,5.203543634305229e-05,2.1253354413474196e-05,Unknown
0.03790384599999985,1.6041013711511545e-05,3.3352249378698613e-06,3.622458528489494e-06,8.646280687828432e-06,5.1993771248305626e-05,2.1260436477755997e-05,Unknown
0.03842307700000003,1.6040373633223887e-05,3.3243401303857818e-06,3.630009262432384e-06,8.64461887424828e-06,5.149555769493764e-05,2.129429466176555e-05,Unknown
0.0389423080000002,1.6041885641584254e-05,3.313062338663179e-06,3.6291128434323136e-06,8.646216686628349e-06,5.065423145546621e-05,2.137143126747462e-05,Unknown
0.039461538000000296,1.6036744332973008e-05,3.304085512546414e-06,3.628319736078853e-06,8.655922058444111e-06,5.012972884583692e-05,2.143543789191575e-05,Unknown
0.03998076899999958,1.6028114480434463e-05,3.2987755740817702e-06,3.6245818316335504e-06,8.667420277971398e-06,5.009019176746764e-05,2.143430755218069e-05,Unknown
0.04049999999999976,1.6028308217534448e-05,3.294525815622014e-06,3.615153419872566e-06,8.670060807283247e-06,5.0233710086567445e-05,2.1443372652266715e-05,Unknown
0.041019230999999934,1.603014634748573e-05,3.290205339825977e-06,3.6052262092252336e-06,8.669611651939866e-06,5.041429837301614e-05,2.15108479780812e-05,Unknown
0.04153846200000011,1.6030246815913597e-05,3.282647553554527e-06,3.6022140321551503e-06,8.672731622441918e-06,5.057584637749449e-05,2.1565291987049157e-05,Unknown
0.0420576920000002,1.6028447776218112e-05,3.262463519958352e-06,3.605947099523632e-06,8.670320761410588e-06,5.066648166707637e-05,2.157133823211337e-05,Unknown
0.04257692300000038,1.602131487575828e-05,3.225405602149582e-06,3.613516521349227e-06,8.663718027914783e-06,5.071825407480446e-05,2.1559888992494163e-05,Unknown
0.043096153999999665,1.6015502570188043e-05,3.189151618168209e-06,3.6253680966412128e-06,8.67396530097639e-06,5.078044860650076e-05,2.1553688771756062e-05,Unknown
0.04361538499999984,1.6014903654925234e-05,3.172311918230574e-06,3.637508114532868e-06,8.70455074579682e-06,5.084823080046507e-05,2.155524646947702e-05,Unknown
0.04413461499999993,1.6014665524229577e-05,3.1660893506610264e-06,3.6415108543111592e-06,8.73134599754961e-06,5.087851530645227e-05,2.154268510417072e-05,Unknown
0.04465384600000011,1.601473025127582e-05,3.1584723642290496e-06,3.6372695810527e-06,8.74102947178255e-06,5.085942509164173e-05,2.147878665873161e-05,Unknown
0.045173077000000283,1.6014444003303256e-05,3.155191823241845e-06,3.6343974506566074e-06,8.741682285208747e-06,5.080751421124763e-05,2.13612509476476e-05,Unknown
0.04569230799999957,1.601257988444123e-05,3.155159437786585e-06,3.6321460235522334e-06,8.737684952787142e-06,5.062667382643826e-05,2.124241951660676e-05,Unknown
0.04621153799999966,1.602093543389699e-05,3.155524804343008e-06,3.6244922473238894e-06,8.72697825339819e-06,5.01833575737785e-05,2.117510088932991e-05,Unknown
0.04673076899999984,1.6036584191227772e-05,3.169734366553623e-06,3.619789280521521e-06,8.710848121205229e-06,4.964091600415764e-05,2.11697029118948e-05,Unknown
0.047250000000000014,1.6040396494701335e-05,3.195283762706205e-06,3.621112865431791e-06,8.701315689450587e-06,4.932786309489322e-05,2.1215193344090615e-05,Unknown
0.04776923100000019,1.604117857789656e-05,3.2119854615148694e-06,3.615387368400039e-06,8.720965043908705e-06,4.922243678960833e-05,2.129962291723518e-05,Unknown
0.048288462000000365,1.604313495179122e-05,3.2166684396080303e-06,3.5955852713109644e-06,8.775078999463905e-06,4.918909175465775e-05,2.1408670621655825e-05,Unknown
0.04880769199999957,1.6036427278691483e-05,3.2171762464188484e-06,3.5717374263190143e-06,8.840956865234872e-06,4.943332162679387e-05,2.1521067353379817e-05,Unknown
0.049326922999999745,1.6037726154977066e-05,3.2161348782563872e-06,3.5617682364254785e-06,8.897321440600921e-06,4.9885634448220246e-05,2.1609064241684976e-05,Unknown
0.04984615399999992,1.6049365970914765e-05,3.214189113149529e-06,3.5721042526566304e-06,8.943666006016062e-06,5.002440863431728e-05,2.1657259205717203e-05,Unknown
0.050365385000000096,1.6052891354691647e-05,3.21116358851233e-06,3.5853289162076947e-06,8.992833395065521e-06,5.008571284319011e-05,2.167257378651949e-05,Unknown
0.05088461500000019,1.6052939158867396e-05,3.206350459818406e-06,3.586100939476517e-06,9.061278653746563e-06,5.0596406424212266e-05,2.1672210658718725e-05,Unknown
0.051403846000000364,1.605221530809153e-05,3.2012023737799606e-06,3.589463757217128e-06,9.165966475001003e-06,5.102327371028747e-05,2.1669691768284845e-05,Unknown
0.05192307699999965,1.6054071328820718e-05,3.201630890060582e-06,3.608968810700412e-06,9.30973369109175e-06,5.10397683714737e-05,2.1668419185289507e-05,Unknown
0.052442307999999827,1.6075046518372444e-05,3.214487208136999e-06,3.628814946544175e-06,9.4586984754731e-06,5.107532619697379e-05,2.1667134807259872e-05,Unknown
0.05296153799999992,1.609872465521469e-05,3.238068393903262e-06,3.634151821252216e-06,9.56559884790516e-06,5.120081536317696e-05,2.166884789611903e-05,Unknown
0.053480769000000095,1.610413552675969e-05,3.264551856545517e-06,3.6267792716510567e-06,9.623684563087912e-06,5.1306502451910014e-05,2.167825613085217e-05,Unknown
0.05400000000000027,1.6102870362781493e-05,3.2851212680892287e-06,3.6125504791614898e-06,9.661473146946732e-06,5.146795029325272e-05,2.168714503250751e-05,Unknown
0.05451923099999956,1.610243180154696e-05,3.29388064938699e-06,3.5994305528550803e-06,9.70454149555788e-06,5.17363573467026e-05,2.168049612087768e-05,Unknown
0.05503846199999973,1.6102525886440486e-05,3.2931162344681984e-06,3.594846788451701e-06,9.761585367939864e-06,5.1901166860536574e-05,2.166229293982756e-05,Unknown
0.055557691999999825,1.6104170566100015e-05,3.288177117882066e-06,3.5981735040508416e-06,9.81723707008697e-06,5.190157107258709e-05,2.164360005342411e-05,Unknown
0.056076923,1.6105681673500655e-05,3.282444068093492e-06,3.604873899990491e-06,9.842089982266208e-06,5.223629271898809e-05,2.1627192447120537e-05,Unknown
0.056596154000000176,1.6105392298844243e-05,3.277078760896904e-06,3.608744590392892e-06,9.842485147308892e-06,5.308960461898822e-05,2.1631726893979456e-05,Unknown
0.05711538500000035,1.610163831756364e-05,3.273905609920941e-06,3.6046197603412847e-06,9.930646148330962e-06,5.396302530039605e-05,2.166209276117556e-05,Unknown
0.057634614999999556,1.6096424939706476e-05,3.279606976453381e-06,3.598390330468807e-06,1.0277244215933929e-05,5.444064651216965e-05,2.167545471455827e-05,Unknown
0.05815384599999973,1.60938280435944e-05,3.298545569900029e-06,3.5966725501410915e-06,1.0855481829280788e-05,5.453729503122162e-05,2.1665697782477487e-05,Unknown
0.05867307699999991,1.6093511609672975e-05,3.32750976030026e-06,3.598384520340936e-06,1.1383623738327815e-05,5.454390991008325e-05,2.168604267628615e-05,Unknown
0.05919230800000008,1.6093462332078824e-05,3.369303977509651e-06,3.603278826625605e-06,1.1661474257884152e-05,5.467812983834301e-05,2.172918212157067e-05,Unknown
0.059711538000000175,1.609164094433024e-05,3.433411162704789e-06,3.613882290299138e-06,1.1740214938011125e-05,5.475999223979756e-05,2.173693544956096e-05,Unknown
0.06023076900000035,1.6083795620156975e-05,3.5125243222399155e-06,3.6255553493886015e-06,1.174856989750684e-05,5.47910352228077e-05,2.1722266483659693e-05,Unknown
0.06074999999999964,1.6073089290010478e-05,3.5803198333300965e-06,3.620847462942205e-06,1.1749369135699493e-05,5.535605742059126e-05,2.173547718556121e-05,Unknown
0.06126923099999981,1.606982014434107e-05,3.6209733089018808e-06,3.585326587689428e-06,1.1758732546007378e-05,5.6204066464052245e-05,2.1775800303369416e-05,Unknown
0.06178846199999999,1.6070082636481954e-05,3.640800108214803e-06,3.520922791075648e-06,1.1780735457777418e-05,5.641079160684495e-05,2.181902685987942e-05,Unknown
0.06230769200000008,1.607232945150952e-05,3.652518175226103e-06,3.4543921949925e-06,1.18109647704289e-05,5.652830233940135e-05,2.1862143027465595e-05,Unknown
0.06282692300000026,1.6091121489208273e-05,3.660894185437223e-06,3.416412114303488e-06,1.1838376427619013e-05,5.735776423810741e-05,2.191940586796629e-05,Unknown
0.06334615399999954,1.611266771399523e-05,3.6612973657138977e-06,3.4043791986114783e-06,1.1853920431341116e-05,5.803020808721568e-05,2.2006976393789523e-05,Unknown
0.06386538499999972,1.611624124757013e-05,3.6594900572793736e-06,3.405100521928283e-06,1.1858749866859128e-05,5.805101669145842e-05,2.212057402019688e-05,Unknown
0.06438461499999981,1.6116564207944212e-05,3.666763715341408e-06,3.409475343797376e-06,1.1859572496601093e-05,5.805294317997959e-05,2.2224419870564284e-05,Unknown
0.06490384599999999,1.6113826173332288e-05,3.6737625742806566e-06,3.409539940914092e-06,1.18597038493561e-05,5.813462435139474e-05,2.229153385731192e-05,Unknown
0.06542307700000016,1.6102381599155625e-05,3.674277228649805e-06,3.408735545000153e-06,1.1860287668175296e-05,5.813390566029601e-05,2.23383514645587e-05,Unknown
0.06594230800000034,1.6100943027750864e-05,3.674575834438983e-06,3.407529012561564e-06,1.1861151144985247e-05,5.822831674277484e-05,2.2407020068831915e-05,Unknown
0.06646153799999954,1.6102659494244076e-05,3.6744520745871536e-06,3.407359461565113e-06,1.1859745204316894e-05,5.839131436629399e-05,2.2546823088855503e-05,Unknown
0.06698076899999972,1.6096633886763537e-05,3.674891085399685e-06,3.421511866158888e-06,1.1856695968292875e-05,5.848303947052103e-05,2.2739970137476067e-05,Unknown
0.0674999999999999,1.6097891781908686e-05,3.6730660112641367e-06,3.445735487777839e-06,1.1855424463472784e-05,5.854119726592117e-05,2.287666198522472e-05,Unknown
0.06801923100000007,1.6102726670224833e-05,3.6661586578520016e-06,3.458937958246979e-06,1.185548347497538e-05,5.8605754000608056e-05,2.2913728123117994e-05,Unknown
0.06853846200000024,1.61001521133378e-05,3.6592140326624608e-06,3.4582130782154894e-06,1.1855157161512509e-05,5.869029676761666e-05,2.2913798701622376e-05,Unknown
0.06905769200000034,1.6097152450149274e-05,3.659618860347431e-06,3.450725370607066e-06,1.1855069370058293e-05,5.880479909535116e-05,2.292371799976044e-05,Unknown
0.06957692299999962,1.6097018485928105e-05,3.671989556533579e-06,3.4373363302568297e-06,1.185631888119507e-05,5.879770214282601e-05,2.2946216551712103e-05,Unknown
0.0700961539999998,1.609745998546659e-05,3.691899309721541e-06,3.4210126149308763e-06,1.1860860574973592e-05,5.857999713392042e-05,2.297450941535808e-05,Unknown
0.07061538499999997,1.610112810375933e-05,3.7140772714781954e-06,3.4049103208659543e-06,1.1869998536115792e-05,5.839432303379332e-05,2.300256381240056e-05,Unknown
0.07113461500000007,1.6113353720652987e-05,3.733846309652469e-06,3.3865639120198653e-06,1.1882700508465126e-05,5.840771994189071e-05,2.302724040467065e-05,Unknown
0.07165384600000024,1.6134061720649992e-05,3.7518395432727863e-06,3.3648163850414237e-06,1.1897195552108387e-05,5.845408472482259e-05,2.305114495910114e-05,Unknown
0.07217307699999953,1.614971068581432e-05,3.776456153116009e-06,3.343145244610621e-06,1.191260918840888e-05,5.840121167128336e-05,2.307817926529904e-05,Unknown
0.0726923079999997,1.615242294341649e-05,3.806532399549101e-06,3.324739992154974e-06,1.19292726647903e-05,5.830725147604197e-05,2.310558418418754e-05,Unknown
0.0732115379999998,1.615318300490536e-05,3.832868159129877e-06,3.310284429732019e-06,1.1947413240961076e-05,5.824195684770337e-05,2.31257686423394e-05,Unknown
0.07373076899999997,1.6156558812665936e-05,3.852808629725672e-06,3.3016609941184303e-06,1.1966284629440184e-05,5.822515477991493e-05,2.3138386498802687e-05,Unknown
0.07425000000000015,1.6156955073441102e-05,3.869454299264607e-06,3.301066538880429e-06,1.1989068737785347e-05,5.8271579119012895e-05,2.315173027602375e-05,Unknown
0.07476923100000032,1.6158616234932562e-05,3.884822881988829e-06,3.3042676268299186e-06,1.202849696797377e-05,5.8381118884799285e-05,2.3178016806967487e-05,Unknown
0.07528846199999961,1.6160560187429295e-05,3.899613541086042e-06,3.3096351754932127e-06,1.209798952327239e-05,5.850924076260698e-05,2.3217498075479096e-05,Unknown
0.0758076919999997,1.615245229943955e-05,3.916313940922952e-06,3.316991511844922e-06,1.2200032107270024e-05,5.861766567229354e-05,2.3247492179864037e-05,Unknown
0.07632692299999988,1.6144330714324666e-05,3.941039959523419e-06,3.3159099172621137e-06,1.2335036691382523e-05,5.872153932904645e-05,2.325340836283914e-05,Unknown
0.07684615400000006,1.6144523785707474e-05,3.980267918988138e-06,3.3083533641504383e-06,1.2505107146605842e-05,5.88468500701833e-05,2.3247268658705616e-05,Unknown
0.07736538500000023,1.6143420965207735e-05,4.034153556519423e-06,3.3067117491159527e-06,1.2686578461908584e-05,5.892874576341304e-05,2.3247407460162164e-05,Unknown
0.07788461500000032,1.6143015107489886e-05,4.094502268458646e-06,3.3073267537611536e-06,1.2820236066845087e-05,5.8920572396548506e-05,2.3269361173525705e-05,Unknown
0.07840384599999961,1.6143375273826846e-05,4.14615429916159e-06,3.307538028930178e-06,1.2870363643964528e-05,5.9234609706205285e-05,2.332935748717067e-05,Unknown
0.07892307699999979,1.6140202079312615e-05,4.1805037808020654e-06,3.310278806707413e-06,1.2870817453758432e-05,6.024888040262855e-05,2.3431841781068776e-05,Unknown
0.07944230799999996,1.613997210060209e-05,4.202951009099663e-06,3.313212880818459e-06,1.2869551365288927e-05,6.134858096008888e-05,2.3544359718655183e-05,Unknown
0.07996153800000005,1.6140236284190406e-05,4.216384592821049e-06,3.3183246436355e-06,1.2883614161464222e-05,6.185074614975063e-05,2.3611752387081543e-05,Unknown
0.08048076900000023,1.614097413922693e-05,4.222952180295882e-06,3.3311279486084296e-06,1.2933462706045716e-05,6.191435735322377e-05,2.3623794692821464e-05,Unknown
0.08099999999999952,1.6144004710026826e-05,4.2256536004739305e-06,3.363135204915199e-06,1.3085326814516377e-05,6.189133469043449e-05,2.3624929293772037e-05,Unknown
0.08151923099999969,1.613658016927959e-05,4.223049134358925e-06,3.423114593221748e-06,1.3437305454426544e-05,6.189178802182474e-05,2.36432752942177e-05,Unknown
0.08203846199999987,1.6124936808820652e-05,4.244507896219737e-06,3.494736196899749e-06,1.397213823131994e-05,6.183927381317824e-05,2.367786350447788e-05,Unknown
0.08255769199999996,1.612962572962228e-05,4.343523921615509e-06,3.554857796954628e-06,1.4478957532666095e-05,6.169085559664025e-05,2.3749586515602737e-05,Unknown
0.08307692300000014,1.614932755894682e-05,4.529879805874445e-06,3.5987349040489373e-06,1.4770462108452104e-05,6.160502822007411e-05,2.393224609545098e-05,Unknown
0.08359615400000031,1.6167867670106014e-05,4.759598025230738e-06,3.6352847796682574e-06,1.4865094090000605e-05,6.161525426978638e-05,2.4289454594507725e-05,Unknown
0.0841153849999996,1.6168707289094174e-05,4.9793560720268815e-06,3.676064839470109e-06,1.4878261365762777e-05,6.159563036973546e-05,2.4675536057382508e-05,Unknown
0.08463461499999969,1.6146868945032486e-05,5.15933957818935e-06,3.7283561257934007e-06,1.487716390802876e-05,6.160144578582759e-05,2.482355070813714e-05,Unknown
0.08515384599999987,1.6114471750728906e-05,5.296693202546081e-06,3.786096344009368e-06,1.4877900356126472e-05,6.168931209374597e-05,2.4808313844853718e-05,Unknown
0.08567307700000004,1.608476106693686e-05,5.398535950965675e-06,3.827172413542786e-06,1.4874858447045376e-05,6.171454678726496e-05,2.498312251738369e-05,Unknown
0.08619230800000022,1.6068973655707813e-05,5.469314121432523e-06,3.837332231746226e-06,1.4860801422818276e-05,6.162382696038552e-05,2.5412433595494748e-05,Unknown
0.08671153800000031,1.6073754244995077e-05,5.511631071940157e-06,3.82733258319512e-06,1.4840640065713767e-05,6.156562445665292e-05,2.587339743247374e-05,Unknown
0.0872307689999996,1.6083321718031798e-05,5.5320337903188026e-06,3.815317905137125e-06,1.4821928879389785e-05,6.162211385515203e-05,2.624799947096356e-05,Unknown
0.08774999999999977,1.6082024616163853e-05,5.541738448695482e-06,3.815193148592023e-06,1.4809218633364788e-05,6.173090261037829e-05,2.654493650582507e-05,Unknown
0.08826923099999995,1.6086579286819585e-05,5.550840669577434e-06,3.829309375663252e-06,1.479774904165454e-05,6.184879307294497e-05,2.6705157728030174e-05,Unknown
0.08878846200000012,1.6106201882677386e-05,5.563016279331231e-06,3.844408703546324e-06,1.477983801320832e-05,6.206720481802612e-05,2.668110194664607e-05,Unknown
0.08930769200000022,1.612763460432026e-05,5.575997438977933e-06,3.854098316689053e-06,1.4763953113124566e-05,6.249254590631498e-05,2.660988511175034e-05,Unknown
0.0898269229999995,1.6160301347951053e-05,5.588440348467835e-06,3.862758683514667e-06,1.4758900366146304e-05,6.284313334265604e-05,2.6631039145813272e-05,Unknown
0.09034615399999968,1.6225642963048947e-05,5.60129230684379e-06,3.872046046224869e-06,1.4759131928215548e-05,6.27979399366353e-05,2.67167348332695e-05,Unknown
0.09086538499999985,1.6340137931890003e-05,5.609972689624596e-06,3.891324591541574e-06,1.4759124574777842e-05,6.284108254765094e-05,2.68051373272135e-05,Unknown
0.09138461499999995,1.649950333753987e-05,5.611526218198228e-06,3.92313564690979e-06,1.4759794894479272e-05,6.340962919158181e-05,2.687956642998362e-05,Unknown
0.09190384600000012,1.6662497024921492e-05,5.611741185782191e-06,3.943096469303111e-06,1.4764448173687193e-05,6.389671243156128e-05,2.6938437998184788e-05,Unknown
0.0924230770000003,1.6813775850759204e-05,5.613004352950279e-06,3.938475998623082e-06,1.4776693121682328e-05,6.394001854022825e-05,2.699097715155513e-05,Unknown
0.09294230799999958,1.6940598404268432e-05,5.615613336406537e-06,3.93112612907508e-06,1.4799612752285e-05,6.389793088433141e-05,2.7048038799034107e-05,Unknown
0.09346153799999968,1.6961818295950574e-05,5.625888572058622e-06,3.947349350789716e-06,1.4835256871024029e-05,6.390143385084602e-05,2.710851446705062e-05,Unknown
0.09398076899999985,1.6812600083773228e-05,5.657674152824843e-06,3.992082900098641e-06,1.4884461984529405e-05,6.42074200482446e-05,2.7163305640454237e-05,Unknown
0.09450000000000003,1.6494084396603572e-05,5.731245837535907e-06,4.05248152344146e-06,1.4947924645133212e-05,6.506759536886327e-05,2.7200276795704877e-05,Unknown
0.0950192310000002,1.5991144924393e-05,5.850788575520182e-06,4.116839670647295e-06,1.5026016793782227e-05,6.581565325729311e-05,2.720708432823816e-05,Unknown
0.09553846200000038,1.5220867975937594e-05,5.99045196032817e-06,4.1789685697488186e-06,1.5112767929756638e-05,6.593807460010216e-05,2.7182964265063933e-05,Unknown
0.09605769199999958,1.4111360444551469e-05,6.113672904195679e-06,4.22750402238681e-06,1.5189208925587998e-05,6.601990686395572e-05,2.71442894985458e-05,Unknown
0.09657692299999976,1.2815715138782916e-05,6.195258211798192e-06,4.249779694017958e-06,1.5232537034396471e-05,6.657972418693073e-05,2.710735446295192e-05,Unknown
0.09709615399999993,1.1805826772619564e-05,6.232129370351866e-06,4.251624207341045e-06,1.523997461985935e-05,6.74348266230252e-05,2.707107481940621e-05,Unknown
0.09761538500000011,1.1468595217236384e-05,6.240986668601272e-06,4.253000353322409e-06,1.523864014791925e-05,6.840335451226011e-05,2.7020920211249504e-05,Unknown
0.0981346150000002,1.1628579270985528e-05,6.2413516633239e-06,4.261177261095472e-06,1.5264054767270703e-05,6.953399618373038e-05,2.6947627458071345e-05,Unknown
0.09865384600000038,1.1871374077659531e-05,6.2412298363034e-06,4.270212708360944e-06,1.5320992261612105e-05,7.071007901884525e-05,2.686773486370047e-05,Unknown
0.09917307699999967,1.2016734482012677e-05,6.241236980665933e-06,4.280420071220218e-06,1.5372725659383373e-05,7.148899612089052e-05,2.681768138453605e-05,Unknown
0.09969230799999984,1.2088013388343514e-05,6.241241227172295e-06,4.295672789443155e-06,1.5385855450819508e-05,7.167695900610044e-05,2.680900389601824e-05,Unknown
0.10021153799999993,1.216948792864817e-05,6.241415337853859e-06,4.309688947945349e-06,1.537106888820506e-05,7.166570956664169e-05,2.6805089862601316e-05,Unknown
0.10073076900000011,1.2308428446060488e-05,6.242646899690384e-06,4.318352620353856e-06,1.536571509471702e-05,7.182870794172467e-05,2.677505996179617e-05,Unknown
0.10125000000000028,1.245073772680248e-05,6.243874418701217e-06,4.327080164176278e-06,1.539116286942506e-05,7.213738468157565e-05,2.673804033426561e-05,Unknown
0.10176923099999957,1.253160808891628e-05,6.243275640741447e-06,4.338122252778812e-06,1.5434918243827693e-05,7.241518634091206e-05,2.671853233660953e-05,Unknown
0.10228846199999975,1.2573953756666426e-05,6.242899275408838e-06,4.350571539669119e-06,1.546996296541062e-05,7.255675496149533e-05,2.6711855150540765e-05,Unknown
0.10280769199999984,1.2628936964406793e-05,6.244315625356777e-06,4.367361775637409e-06,1.5484341765353766e-05,7.256148034626148e-05,2.670764261555628e-05,Unknown
0.10332692300000001,1.27081973561735e-05,6.245294419867947e-06,4.392213683484284e-06,1.54863587182279e-05,7.250175159929794e-05,2.670218550303561e-05,Unknown
0.10384615400000019,1.2776531957899696e-05,6.24524526077518e-06,4.423674140848736e-06,1.5484556552853062e-05,7.245671013866822e-05,2.6693896310596463e-05,Unknown
0.10436538500000037,1.2796302997920156e-05,6.244468934605314e-06,4.454656810550618e-06,1.547884102227834e-05,7.246277602489445e-05,2.6680013256650998e-05,Unknown
0.10488461499999957,1.276100659177022e-05,6.242320131361467e-06,4.4776787133393575e-06,1.5470917245122998e-05,7.249973390445504e-05,2.665376106307655e-05,Unknown
0.10540384599999975,1.2653131424997034e-05,6.2392833483409865e-06,4.490309772155799e-06,1.546633633472835e-05,7.251969509155117e-05,2.660920061692547e-05,Unknown
0.10592307699999992,1.2476928598101073e-05,6.236937858104566e-06,4.494846293940716e-06,1.5468076418972233e-05,7.251079405077939e-05,2.655371377651596e-05,Unknown
0.1064423080000001,1.2288826229620787e-05,6.237770921211572e-06,4.493112708390931e-06,1.5473235873645532e-05,7.249690237010009e-05,2.650028339868279e-05,Unknown
0.10696153800000019,1.2149373656959605e-05,6.2421481231962805e-06,4.488202654762964e-06,1.5475953714129436e-05,7.248586666221028e-05,2.64442567473968e-05,Unknown
0.10748076900000036,1.208401612561104e-05,6.249534667777638e-06,4.487140753143279e-06,1.547330214771635e-05,7.252356313600903e-05,2.63645503077196e-05,Unknown
0.10799999999999965,1.204068277711307e-05,6.261287327282908e-06,4.490469647927e-06,1.546467838862482e-05,7.28360045537192e-05,2.625664374242334e-05,Unknown
0.10851923099999983,1.195617496052235e-05,6.277890180856799e-06,4.493868588000394e-06,1.5444821084132394e-05,7.372842554276298e-05,2.617919768584181e-05,Unknown
0.109038462,1.1849513434300258e-05,6.2951450029820446e-06,4.497163832340453e-06,1.541147437220388e-05,7.50130004073462e-05,2.6174494337635283e-05,Unknown
0.1095576920000001,1.176770320448178e-05,6.306582856778276e-06,4.500516185112881e-06,1.5383281010925424e-05,7.583032287223121e-05,2.611838464139611e-05,Unknown
0.11007692300000027,1.171602245985106e-05,6.31111597286641e-06,4.505156101781668e-06,1.5376574546140522e-05,7.588389349177596e-05,2.5881727882777413e-05,Unknown
0.11059615399999956,1.1675345758947482e-05,6.312010524353128e-06,4.513663549116351e-06,1.5376424563917145e-05,7.617841953917649e-05,2.556456064269065e-05,Unknown
0.11111538499999973,1.1630416697587775e-05,6.311094215527184e-06,4.521211397853011e-06,1.5362432177307887e-05,7.711700296459095e-05,2.5331941873357755e-05,Unknown
0.11163461499999983,1.158448797440502e-05,6.309101800514339e-06,4.522331327530056e-06,1.533096878099635e-05,7.766732757073345e-05,2.52126825852302e-05,Unknown
0.112153846,1.1562772871516498e-05,6.308160255542051e-06,4.523046402211294e-06,1.5287364746443336e-05,7.755407131059339e-05,2.5162951452874184e-05,Unknown
0.11267307700000018,1.1567338788674131e-05,6.309739567463868e-06,4.525782993916083e-06,1.5236307001729696e-05,7.747989682641322e-05,2.5146394109755748e-05,Unknown
0.11319230800000035,1.15681919136124e-05,6.311844153990837e-06,4.527612463280236e-06,1.5186704486765295e-05,7.757480984398995e-05,2.514303666118481e-05,Unknown
0.11371153799999956,1.1561751876152028e-05,6.312650239616117e-06,4.529252681270446e-06,1.5161174495046284e-05,7.761207651239732e-05,2.5143126354360812e-05,Unknown
0.11423076899999973,1.1558844683854712e-05,6.312941985090287e-06,4.528026835120404e-06,1.516209046836768e-05,7.760136994589842e-05,2.5140857077255335e-05,Unknown
0.11474999999999991,1.155573109452271e-05,6.313797415027076e-06,4.521055077478951e-06,1.5166495829498948e-05,7.759409699691509e-05,2.514045013623076e-05,Unknown
0.11526923100000008,1.155329989297015e-05,6.316192262142962e-06,4.512263264794751e-06,1.5177559784321226e-05,7.757471142780087e-05,2.51551795763476e-05,Unknown
0.11578846200000026,1.1546909112152772e-05,6.319349034137961e-06,4.507425206219484e-06,1.519772365225695e-05,7.756245171753493e-05,2.5182663043858547e-05,Unknown
0.11630769200000035,1.1537240484240096e-05,6.321148742515644e-06,4.507402745360511e-06,1.5197521345335132e-05,7.758486013140576e-05,2.519941583882857e-05,Unknown
0.11682692299999964,1.1537372439169349e-05,6.321547573692519e-06,4.507885655985208e-06,1.5169335947287484e-05,7.759124031196222e-05,2.518996678834148e-05,Unknown
0.11734615399999981,1.15371648717742e-05,6.32262993056406e-06,4.505594049205977e-06,1.51339850111566e-05,7.759097183534583e-05,2.515760882954846e-05,Unknown
0.11786538499999999,1.1534458547163295e-05,6.325364180118532e-06,4.5043839107341166e-06,1.5099568336463912e-05,7.764237856985168e-05,2.511083456928613e-05,Unknown
0.11838461500000008,1.1550247400273946e-05,6.325117918574677e-06,4.5069690088408086e-06,1.505953092500462e-05,7.768684051836499e-05,2.5056924940135685e-05,Unknown
0.11890384600000026,1.156897981991706e-05,6.3158471768980605e-06,4.509370972314585e-06,1.5013236029052192e-05,7.763474186052314e-05,2.500334328693897e-05,Unknown
0.11942307699999954,1.1569575555813538e-05,6.302019772314768e-06,4.510250116199092e-06,1.4973990243832178e-05,7.746429232302726e-05,2.4954209984872584e-05,Unknown
0.11994230799999972,1.1570339840899446e-05,6.29349695812745e-06,4.512211377160436e-06,1.495642938290344e-05,7.724026590222951e-05,2.490643214935728e-05,Unknown
0.12046153799999981,1.1574349975762297e-05,6.291993866387251e-06,4.521011931366233e-06,1.496412674251716e-05,7.709107306669272e-05,2.486085282705678e-05,Unknown
0.12098076899999999,1.1568631785990674e-05,6.296713100191172e-06,4.543143706993193e-06,1.4992994252486089e-05,7.70809236737524e-05,2.4840583423424355e-05,Unknown
0.12150000000000016,1.156649846762267e-05,6.3080306314495935e-06,4.575056566774487e-06,1.5039452436308356e-05,7.71880169667485e-05,2.4849266852605865e-05,Unknown
0.12201923100000034,1.1581614219686276e-05,6.321711405881027e-06,4.605462119915897e-06,1.51023394361178e-05,7.7366712344516e-05,2.478350585788141e-05,Unknown
0.12253846199999963,1.1603727085768916e-05,6.334049570866901e-06,4.627182015518796e-06,1.5176698118944232e-05,7.753948174604595e-05,2.4549430023244578e-05,Unknown
0.12305769199999972,1.1613910914411652e-05,6.345663809522676e-06,4.635869739282183e-06,1.5250312525984134e-05,7.76361128409228e-05,2.4268045413432586e-05,Unknown
0.1235769229999999,1.1604574208435651e-05,6.356491333355515e-06,4.6255873607183095e-06,1.531398578764381e-05,7.765718557026313e-05,2.410527424183424e-05,Unknown
0.12409615400000007,1.1586687678702711e-05,6.3629748879034e-06,4.60204958100946e-06,1.536745232730976e-05,7.764058603225245e-05,2.404686559422437e-05,Unknown
0.12461538500000024,1.1575829981424038e-05,6.363817309047742e-06,4.589591116517745e-06,1.540742088815107e-05,7.761068775100653e-05,2.4014459964291164e-05,Unknown
0.12513461500000034,1.158011262147025e-05,6.364805227967195e-06,4.60558944758809e-06,1.5417878995825513e-05,7.758153472364018e-05,2.3956356896845708e-05,Unknown
0.12565384599999962,1.159375268920481e-05,6.3693165371201545e-06,4.641017818812096e-06,1.5378768336447648e-05,7.757308140341527e-05,2.386252450705586e-05,Unknown
0.1261730769999998,1.1598949817821475e-05,6.371501917207877e-06,4.6738905323603086e-06,1.5290883732693365e-05,7.761331556331795e-05,2.378394496057052e-05,Unknown
0.12669230799999998,1.159586422846814e-05,6.3647503477026325e-06,4.690566783000133e-06,1.519306299441898e-05,7.76941961988832e-05,2.374900031607412e-05,Unknown
0.12721153800000007,1.1589979520358298e-05,6.3502138301585605e-06,4.693355200737267e-06,1.5134778352995884e-05,7.772705940624889e-05,2.373783097632217e-05,Unknown
0.12773076900000024,1.1558595912241344e-05,6.337672331594279e-06,4.693227614965832e-06,1.5130344987317751e-05,7.760975590562237e-05,2.3726707735887876e-05,Unknown
0.12824999999999953,1.1511813996144444e-05,6.342666413309354e-06,4.705154094165705e-06,1.515975871726062e-05,7.733091560570739e-05,2.3679882406200743e-05,Unknown
0.1287692309999997,1.1494074831953092e-05,6.378100212062411e-06,4.736551976728775e-06,1.5201278820305984e-05,7.699004602116242e-05,2.3568210205719315e-05,Unknown
0.12928846199999988,1.149513427738086e-05,6.442042868933432e-06,4.771699658932121e-06,1.5247885442523646e-05,7.673899787879961e-05,2.342055977284592e-05,Unknown
0.12980769199999997,1.1493736560105214e-05,6.516041672318594e-06,4.792626007591053e-06,1.5304991701692277e-05,7.66642594650737e-05,2.331014783281865e-05,Unknown
0.13032692300000015,1.1492015984807466e-05,6.578853161728686e-06,4.799666554780362e-06,1.537975975529731e-05,7.667234032543088e-05,2.328316345799092e-05,Unknown
0.13084615400000033,1.1474436699977163e-05,6.6208543982830695e-06,4.802623648954405e-06,1.5467542192325453e-05,7.65363718755214e-05,2.331282806426264e-05,Unknown
0.1313653849999996,1.1450149291037373e-05,6.649708375403845e-06,4.809628955034015e-06,1.5553744240614295e-05,7.6213136916954e-05,2.334140126180503e-05,Unknown
0.1318846149999997,1.1442843418374773e-05,6.6845210282160524e-06,4.81881748552664e-06,1.5629696965159437e-05,7.60096652485955e-05,2.3353017798738013e-05,Unknown
0.13240384599999988,1.1442190834669247e-05,6.741783388691124e-06,4.820817119368918e-06,1.5694441235359687e-05,7.60090823690312e-05,2.336345797353873e-05,Unknown
0.13292307700000006,1.1446816701866002e-05,6.824598852339697e-06,4.822117949507832e-06,1.5747547036729324e-05,7.585759333767974e-05,2.336992132231028e-05,Unknown
0.13344230800000023,1.1458493909620098e-05,6.909237805579493e-06,4.854851533801917e-06,1.578763758708078e-05,7.567606211435278e-05,2.3356991723733487e-05,Unknown
0.13396153800000032,1.1459989870066484e-05,6.959340294787915e-06,4.9348940923503575e-06,1.5810590936288522e-05,7.568579052868962e-05,2.332614966684454e-05,Unknown
0.1344807689999996,1.1456585411274014e-05,6.970201773018727e-06,5.03231591906091e-06,1.5815201569510703e-05,7.524257601281192e-05,2.3295549085385175e-05,Unknown
0.1349999999999998,1.1458028402150668e-05,6.96271770856493e-06,5.11364921615407e-06,1.5811807383886247e-05,7.42525427306798e-05,2.327866594988885e-05,Unknown
0.13551923099999996,1.1457180334910888e-05,6.952959789409126e-06,5.181942315419903e-06,1.5815109978097406e-05,7.364087140044663e-05,2.326986281251364e-05,Unknown
0.13603846200000014,1.1456400947985443e-05,6.951864501373878e-06,5.262649074256795e-06,1.5833881578708667e-05,7.356949956876351e-05,2.325202745523833e-05,Unknown
0.13655769200000023,1.1456100881989543e-05,6.958867676885445e-06,5.375841418064627e-06,1.5865716827111593e-05,7.35537788449518e-05,2.321146547971963e-05,Unknown
0.13707692299999952,1.1459497275528474e-05,6.961278482518656e-06,5.513438425839344e-06,1.589638254852742e-05,7.351502833340802e-05,2.3147653556084052e-05,Unknown
0.1375961539999997,1.1478805709338798e-05,6.950520994284836e-06,5.6363965503462005e-06,1.591783087396412e-05,7.351358601828228e-05,2.308911228298017e-05,Unknown
0.13811538499999987,1.1496423570039337e-05,6.928434138986915e-06,5.714952091787221e-06,1.5942316168989126e-05,7.352136992598685e-05,2.3080215371200813e-05,Unknown
0.13863461499999996,1.149705718808099e-05,6.903645216694762e-06,5.755145492235897e-06,1.5987347619741916e-05,7.350998381080159e-05,2.309368153775945e-05,Unknown
0.13915384600000014,1.1508735780305983e-05,6.885393770904185e-06,5.777852628599689e-06,1.6052671424429514e-05,7.346779590781515e-05,2.300504185161676e-05,Unknown
0.1396730770000003,1.154216418727598e-05,6.881603322226671e-06,5.799085767768402e-06,1.6117863010829512e-05,7.344533112609346e-05,2.2751386370423305e-05,Unknown
0.1401923079999996,1.1568121791637866e-05,6.8921859790890764e-06,5.828642643605251e-06,1.616599888249728e-05,7.345752722452174e-05,2.243917676255052e-05,Unknown
0.1407115379999997,1.1575808906378012e-05,6.906427949129957e-06,5.865623539727472e-06,1.6201043305476687e-05,7.345336571199124e-05,2.22116355598108e-05,Unknown
0.14123076899999987,1.157998653075506e-05,6.918376853213177e-06,5.89394093285874e-06,1.6242398248106518e-05,7.344311924388273e-05,2.2104956742050632e-05,Unknown
0.14175000000000004,1.1594695291602892e-05,6.933096236270154e-06,5.900010012328716e-06,1.6311148645884176e-05,7.346057207356814e-05,2.207029666175972e-05,Unknown
0.14226923100000022,1.161536376895814e-05,6.964993928231684e-06,5.892916539241695e-06,1.640252894267488e-05,7.349540344420082e-05,2.2045723160310707e-05,Unknown
0.1427884619999995,1.161209529817244e-05,7.031040070223669e-06,5.889331484402851e-06,1.647730526190126e-05,7.353711885433521e-05,2.1995471223583075e-05,Unknown
0.1433076919999996,1.1593807581532625e-05,7.12616848750873e-06,5.89059375992933e-06,1.6510010971750817e-05,7.358736520731487e-05,2.191504120911566e-05,Unknown
0.14382692299999977,1.1596834407237414e-05,7.222462874154704e-06,5.890295570905419e-06,1.651622221694516e-05,7.364613567304728e-05,2.1808276945408126e-05,Unknown
0.14434615399999995,1.1603975427805594e-05,7.302862374319568e-06,5.894552606674008e-06,1.651875477933035e-05,7.369246968684215e-05,2.166263058948691e-05,Unknown
0.14486538500000012,1.1600638047510663e-05,7.376017490460789e-06,5.922240500386891e-06,1.6529317642223638e-05,7.369098674685463e-05,2.146791326129449e-05,Unknown
0.14538461500000022,1.1601495495700391e-05,7.46944055211398e-06,5.973369187248688e-06,1.654833099345285e-05,7.364223680140727e-05,2.1245903873728188e-05,Unknown
0.1459038459999995,1.1596108263851404e-05,7.620103152640783e-06,6.0166344019769965e-06,1.6563929125355328e-05,7.358168059475654e-05,2.101279984918106e-05,Unknown
0.14642307699999968,1.158204224280706e-05,7.849196888837213e-06,6.032726178330383e-06,1.6571006901599014e-05,7.353286466729432e-05,2.0789678713668563e-05,Unknown
0.14694230799999985,1.1576659977345456e-05,8.13280266845294e-06,6.03440922757965e-06,1.6576814298464594e-05,7.349439648017542e-05,2.0694794845634917e-05,Unknown
0.14746153799999995,1.1576884537922765e-05,8.40399213263732e-06,6.033281598813904e-06,1.6588859202543234e-05,7.345432419245369e-05,2.085769641194556e-05,Unknown
0.14798076900000012,1.1578019349890966e-05,8.600972670618696e-06,6.037969794736968e-06,1.6609252044183077e-05,7.340782718274817e-05,2.1221832382763287e-05,Unknown
0.1485000000000003,1.1580257556714148e-05,8.71398431024763e-06,6.06488860641223e-06,1.6632550548267785e-05,7.337516422018916e-05,2.156023716988656e-05,Unknown
0.14901923099999959,1.157290059025925e-05,8.773225462537477e-06,6.106213709416052e-06,1.6650842673518043e-05,7.339133368334619e-05,2.1680616664676885e-05,Unknown
0.14953846199999976,1.1562291196731831e-05,8.810874387487662e-06,6.132558230033774e-06,1.6660687654610388e-05,7.345405334275327e-05,2.16476243405648e-05,Unknown
0.15005769199999985,1.1561445961413489e-05,8.840245118043906e-06,6.137545650372643e-06,1.6663471786090642e-05,7.349658034517437e-05,2.1668867972250243e-05,Unknown
0.15057692300000003,1.1565732304825112e-05,8.85685732951913e-06,6.137656253628876e-06,1.6663183372316148e-05,7.34335976555976e-05,2.1738410775771468e-05,Unknown
0.1510961540000002,1.1572770768915732e-05,8.86094814769066e-06,6.14168792981269e-06,1.6662751836913e-05,7.325147034311934e-05,2.1740487370526977e-05,Unknown
0.15161538500000038,1.157421492760987e-05,8.861122246872185e-06,6.145024090233416e-06,1.666235523432682e-05,7.304583724778628e-05,2.170399384205588e-05,Unknown
0.15213461499999958,1.1566516557368612e-05,8.857736935735844e-06,6.145164369428022e-06,1.666147098384541e-05,7.291651273753778e-05,2.1682542055935623e-05,Unknown
0.15265384599999976,1.15624956173491e-05,8.84783774166114e-06,6.146337659106779e-06,1.6659817294043153e-05,7.287562861565043e-05,2.1674348459543737e-05,Unknown
0.15317307699999994,1.1566422946416307e-05,8.836841714124972e-06,6.1482047272988296e-06,1.665649387104146e-05,7.291604136427246e-05,2.1683535057947817e-05,Unknown
0.1536923080000001,1.160224433445788e-05,8.830870046724675e-06,6.14219123557537e-06,1.6650779805671294e-05,7.304950282844393e-05,2.169832700660459e-05,Unknown
0.1542115380000002,1.1692256013338253e-05,8.828131577339262e-06,6.125402742547792e-06,1.6647132013956226e-05,7.315555515190596e-05,2.1698767191514823e-05,Unknown
0.15473076900000038,1.1791213644496442e-05,8.82509112457189e-06,6.109434804951809e-06,1.6654365982327503e-05,7.307511743086755e-05,2.169244532963634e-05,Unknown
0.15524999999999967,1.1847505421648956e-05,8.82254538608917e-06,6.1044476391424016e-06,1.668142882969156e-05,7.30126930967149e-05,2.168854836518224e-05,Unknown
0.15576923099999984,1.186704708711477e-05,8.823591867452669e-06,6.106698674112303e-06,1.6740085412721044e-05,7.316315879175998e-05,2.16881876835773e-05,Unknown
0.15628846200000002,1.1871437625743934e-05,8.83106994154691e-06,6.1121838658286844e-06,1.684319618205571e-05,7.319804529247071e-05,2.1692420880593315e-05,Unknown
0.1568076920000001,1.1883678483573538e-05,8.847335238913053e-06,6.124141997494202e-06,1.6985616405576634e-05,7.292731457801467e-05,2.1693703715913535e-05,Unknown
0.15732692300000028,1.1928436709086645e-05,8.875784392405362e-06,6.1402980371067286e-06,1.7121394824564967e-05,7.260033766502288e-05,2.168646739739218e-05,Unknown
0.15784615399999957,1.1988208782495867e-05,8.921814100421688e-06,6.15229363662459e-06,1.7192356435367818e-05,7.226661694397879e-05,2.167817349524388e-05,Unknown
0.15836538499999975,1.2033099338857528e-05,8.992646041032399e-06,6.157762350960756e-06,1.718791445558838e-05,7.176833279613732e-05,2.1674660553914284e-05,Unknown
0.15888461499999984,1.2061588794448322e-05,9.100731130904995e-06,6.161619443130042e-06,1.714915679436599e-05,7.121815322827342e-05,2.167357091892874e-05,Unknown
0.15940384600000002,1.2073605277959546e-05,9.26233785644296e-06,6.172444297092342e-06,1.7149729111961376e-05,7.081925888721512e-05,2.16728614895703e-05,Unknown
0.1599230770000002,1.2084025616133533e-05,9.47074693206252e-06,6.195440042107301e-06,1.7284015982259098e-05,7.066744561233476e-05,2.1675636062464693e-05,Unknown
0.16044230800000037,1.2109578540015693e-05,9.676362626499556e-06,6.217863730858569e-06,1.757509631709686e-05,7.070471451820649e-05,2.169847233358126e-05,Unknown
0.16096153799999957,1.213095531298132e-05,9.830826539311414e-06,6.221101455602207e-06,1.789342888713836e-05,7.071732580508492e-05,2.1757718978407252e-05,Unknown
0.16148076899999975,1.2137225963535283e-05,9.9354393652906e-06,6.213964665229841e-06,1.809336811498991e-05,7.067835915227474e-05,2.1838117684501324e-05,Unknown
0.16199999999999992,1.2132457085006189e-05,1.0023200152906334e-05,6.216087210091276e-06,1.8171275148989543e-05,7.065674782368936e-05,2.191325294891189e-05,Unknown
0.1625192310000001,1.2118894101525485e-05,1.0125435523730157e-05,6.23071381046337e-06,1.8198817161168787e-05,7.064520245600293e-05,2.1977340792915517e-05,Unknown
0.16303846200000027,1.2115636624792323e-05,1.0253414279143229e-05,6.274797086759093e-06,1.821935197134795e-05,7.062872983490147e-05,2.202551990203887e-05,Unknown
0.16355769200000037,1.2123993207491515e-05,1.0385950374010576e-05,6.3714941053331135e-06,1.824957967500784e-05,7.060156856821871e-05,2.201868648642643e-05,Unknown
0.16407692299999965,1.212559959624408e-05,1.048882337140137e-05,6.483529394671675e-06,1.8296165676664468e-05,7.057799552263812e-05,2.1934124153910037e-05,Unknown
0.16459615399999983,1.212456493910722e-05,1.054911286749464e-05,6.549533629191511e-06,1.8361971114963305e-05,7.05595676101397e-05,2.19356519666638e-05,Unknown
0.165115385,1.2124050711164109e-05,1.0579994957287688e-05,6.567127243515543e-06,1.8451895870428724e-05,7.052178333920962e-05,2.2261283224555617e-05,Unknown
0.1656346150000001,1.212047817219806e-05,1.060182689982618e-05,6.567654126791184e-06,1.8560225547394585e-05,7.041407390918615e-05,2.2809134084507496e-05,Unknown
0.16615384600000027,1.2134600430819111e-05,1.0630454591610176e-05,6.571283020497014e-06,1.866506715318128e-05,7.021710538835045e-05,2.3229041313693674e-05,Unknown
0.16667307699999956,1.2178705688953798e-05,1.0675995656202291e-05,6.589623965882421e-06,1.8758207676521548e-05,7.000810016207289e-05,2.3379079941020757e-05,Unknown
0.16719230799999973,1.223273063836837e-05,1.0735778519264696e-05,6.629302558217513e-06,1.8856863459779995e-05,6.986367640371306e-05,2.3384857254303044e-05,Unknown
0.16771153799999983,1.2286176430032788e-05,1.0787383497090671e-05,6.67218773806493e-06,1.897037081591144e-05,6.977895888121653e-05,2.3385196236113124e-05,Unknown
0.168230769,1.2360628237798813e-05,1.0806877140764176e-05,6.684955023651245e-06,1.907273077671333e-05,6.972100748945826e-05,2.339424555713052e-05,Unknown
0.16875000000000018,1.2498083183883192e-05,1.0803904018958182e-05,6.678227036333013e-06,1.9131105197897133e-05,6.967337638957307e-05,2.3392799009091267e-05,Unknown
0.16926923100000035,1.2712606246289807e-05,1.0808017621039136e-05,6.6943046480390105e-06,1.9150488952033668e-05,6.964877923643717e-05,2.3413566830929373e-05,Unknown
0.16978846199999964,1.2941739307162426e-05,1.0819227248844196e-05,6.733801408843391e-06,1.915641392347968e-05,6.965063333523873e-05,2.347594552109032e-05,Unknown
0.17030769199999973,1.3116333662314987e-05,1.082342794064865e-05,6.769820870801139e-06,1.916056183822021e-05,6.963459455673779e-05,2.354760398037321e-05,Unknown
0.1708269229999999,1.3234348420527622e-05,1.0823797339667508e-05,6.803972785514952e-06,1.916460040658809e-05,6.959147471604197e-05,2.3605405922808108e-05,Unknown
0.17134615400000008,1.3318562350204018e-05,1.082345749717371e-05,6.863244374280952e-06,1.9167450920983595e-05,6.957570530200817e-05,2.36496235294437e-05,Unknown
0.17186538500000026,1.3398498031436173e-05,1.0823763729090394e-05,6.965953781001935e-06,1.9167557210140392e-05,6.958800417501806e-05,2.3667263154679775e-05,Unknown
0.17238461500000035,1.349366214835513e-05,1.0821727193929764e-05,7.09455410072795e-06,1.9164902954716804e-05,6.958371014707357e-05,2.363258073740797e-05,Unknown
0.17290384599999964,1.3565840686232749e-05,1.0816817183047172e-05,7.203898425496602e-06,1.915560025681851e-05,6.960450861974545e-05,2.3550165460265924e-05,Unknown
0.17342307699999981,1.358809899416764e-05,1.082893837214366e-05,7.265057205358394e-06,1.9135948856996435e-05,6.964427643412265e-05,2.346678718612884e-05,Unknown
0.173942308,1.3589321964599492e-05,1.0854481179498373e-05,7.2855059553016755e-06,1.9111216202542526e-05,6.948954300679458e-05,2.3416491487165125e-05,Unknown
0.17446153800000008,1.3590354320698045e-05,1.086613774240978e-05,7.285447236793268e-06,1.909116273533208e-05,6.917685831356019e-05,2.3402425884283647e-05,Unknown
0.17498076900000026,1.3608632486727549e-05,1.0866208174950904e-05,7.278511495081299e-06,1.9082303740276787e-05,6.909096953816193e-05,2.342459575429208e-05,Unknown
0.17549999999999955,1.365684520242123e-05,1.0869637023658958e-05,7.278219519160307e-06,1.9085261395967837e-05,6.905776046156473e-05,2.348310071637373e-05,Unknown
0.17601923099999972,1.3702862195066356e-05,1.0878749719488534e-05,7.29398556643512e-06,1.9090389481048296e-05,6.868352034954356e-05,2.35737336288174e-05,Unknown
0.1765384619999999,1.3727136815579547e-05,1.0896643640771649e-05,7.31947277930771e-06,1.907830044043884e-05,6.835760975447545e-05,2.3691608361290374e-05,Unknown
0.177057692,1.3737373339108523e-05,1.0938685861371031e-05,7.345309416961725e-06,1.9036562982773944e-05,6.833083525864189e-05,2.384397561221728e-05,Unknown
0.17757692300000016,1.3730413990938204e-05,1.1024052544605131e-05,7.370508699761845e-06,1.897817131810786e-05,6.828127817252609e-05,2.404970933005359e-05,Unknown
0.17809615400000034,1.372969590440814e-05,1.1149083161676113e-05,7.3962417083176625e-06,1.8930267912317053e-05,6.815165230964681e-05,2.4289746424394472e-05,Unknown
0.17861538499999963,1.3750466961578194e-05,1.128768824710508e-05,7.426075804646995e-06,1.8902784026731958e-05,6.803205224168263e-05,2.446609296854585e-05,Unknown
0.17913461499999972,1.3766933559191976e-05,1.142553689998855e-05,7.471316893840693e-06,1.888644329630969e-05,6.788305692141717e-05,2.4513797017534352e-05,Unknown
0.1796538459999999,1.3773095746517463e-05,1.1571271443491546e-05,7.547917128197602e-06,1.887143078047229e-05,6.767002764503902e-05,2.4510786046876505e-05,Unknown
0.18017307700000007,1.3778958237707575e-05,1.1734625539745924e-05,7.665319905334052e-06,1.885692136940912e-05,6.754331538961047e-05,2.4526262087478387e-05,Unknown
0.18069230800000025,1.3796758875030598e-05,1.190102980929145e-05,7.820593933612027e-06,1.885587389838924e-05,6.754550976123301e-05,2.4537317742851184e-05,Unknown
0.18121153800000034,1.3841480299299198e-05,1.2034743730779926e-05,7.997504298737792e-06,1.8887207782618585e-05,6.729549200694526e-05,2.454004694613365e-05,Unknown
0.18173076899999963,1.3897072444122611e-05,1.2116097382639396e-05,8.164815256057973e-06,1.894871974459926e-05,6.664090073704354e-05,2.4532396244953748e-05,Unknown
0.1822499999999998,1.3932152152549056e-05,1.215655061595929e-05,8.292883213672779e-06,1.898271946758264e-05,6.595689084196364e-05,2.453119682244396e-05,Unknown
0.18276923099999998,1.3942341648145804e-05,1.2175028244145994e-05,8.38274597843516e-06,1.88949437697226e-05,6.558148250152759e-05,2.458737349655098e-05,Unknown
0.18328846200000015,1.3942764500865054e-05,1.21821612982614e-05,8.464707514436963e-06,1.867391530037129e-05,6.55133595381917e-05,2.465384732901944e-05,Unknown
0.18380769200000024,1.3944365375540925e-05,1.2181665741686314e-05,8.570020871880326e-06,1.84491957617246e-05,6.551900104243027e-05,2.4645161386215917e-05,Unknown
0.18432692299999953,1.3946983494283534e-05,1.2173076834467864e-05,8.689898390443048e-06,1.834157813484964e-05,6.542502881166267e-05,2.4590933876931803e-05,Unknown
0.1848461539999997,1.3945199508010892e-05,1.215600399417247e-05,8.76388370418833e-06,1.833918984453777e-05,6.53819812917973e-05,2.45673985686484e-05,Unknown
0.18536538499999988,1.3941837628512034e-05,1.2133921207097404e-05,8.768826767119093e-06,1.838101207955516e-05,6.537290707616641e-05,2.457055217930857e-05,Unknown
0.18588461499999998,1.3943116421903483e-05,1.21148615635352e-05,8.760383789952561e-06,1.844224201793948e-05,6.48966648782306e-05,2.455171376583603e-05,Unknown
0.18640384600000015,1.3944193118457846e-05,1.2104768544660077e-05,8.772645557887118e-06,1.8511266908735286e-05,6.416289745552825e-05,2.4515217851724136e-05,Unknown
0.18692307700000033,1.3943925924873665e-05,1.209965647208431e-05,8.786499646822457e-06,1.8569106778548265e-05,6.398069306239054e-05,2.448762005287436e-05,Unknown
0.1874423079999996,1.3941146738503553e-05,1.2096642473398773e-05,8.792406173469648e-06,1.860645372283684e-05,6.386845010918498e-05,2.445101703261474e-05,Unknown
0.1879615379999997,1.391921311296172e-05,1.2102355137989704e-05,8.799984219057182e-06,1.862864461699734e-05,6.310397665140544e-05,2.4417298301422216e-05,Unknown
0.18848076899999988,1.3892617897546451e-05,1.2113371029191612e-05,8.823599438866015e-06,1.864285331693103e-05,6.244418168505712e-05,2.4457389304583013e-05,Unknown
0.18900000000000006,1.3897126014493453e-05,1.211445941268367e-05,8.87184192847956e-06,1.865072293747048e-05,6.236475789750692e-05,2.454742128896879e-05,Unknown
0.18951923100000023,1.3917122006789104e-05,1.2118116964857369e-05,8.93804080483116e-06,1.865277177915016e-05,6.231911336266248e-05,2.4570423777634868e-05,Unknown
0.19003846199999952,1.3926826913180975e-05,1.2154343903461192e-05,9.014369315733611e-06,1.865248433993698e-05,6.223507471234153e-05,2.4521031965183973e-05,Unknown
0.1905576919999996,1.3932099717844928e-05,1.2208264775034313e-05,9.105484848633454e-06,1.8654067611170448e-05,6.224395541033978e-05,2.4493473635111343e-05,Unknown
0.1910769229999998,1.3931463569326135e-05,1.2243908549930696e-05,9.226135312895143e-06,1.8663041784645043e-05,6.216533850145973e-05,2.448592807299806e-05,Unknown
0.19159615399999996,1.3931416879823889e-05,1.2259700378822505e-05,9.378252981892898e-06,1.868509202568563e-05,6.201190835001128e-05,2.4398833724548837e-05,Unknown
0.19211538500000014,1.3951258806033512e-05,1.2268920782101412e-05,9.535366880327902e-06,1.8716476355344708e-05,6.191031088845377e-05,2.4226835887116717e-05,Unknown
0.19263461500000023,1.39800345991595e-05,1.227749970452865e-05,9.665364310564753e-06,1.8745679284161663e-05,6.185330551583922e-05,2.4099266289100387e-05,Unknown
0.19315384599999952,1.3999091256830329e-05,1.2281742471430704e-05,9.749556938480756e-06,1.8767757293087317e-05,6.179121054922376e-05,2.409451893949125e-05,Unknown
0.1936730769999997,1.4013329362856097e-05,1.2281479943897707e-05,9.784859162043894e-06,1.8787354466562176e-05,6.169611571942889e-05,2.418102457531373e-05,Unknown
0.19419230799999987,1.4030165072547272e-05,1.2299468255404346e-05,9.789924849439473e-06,1.8812162525780437e-05,6.158718368366042e-05,2.429108549115181e-05,Unknown
0.19471153799999996,1.4044477230705726e-05,1.235077113949418e-05,9.790184931118909e-06,1.884697567318392e-05,6.152037120830355e-05,2.4336094084685262e-05,Unknown
0.19523076900000014,1.4046190367407245e-05,1.2406893782417778e-05,9.79139432537638e-06,1.888829907484372e-05,6.15142873215765e-05,2.430965657926587e-05,Unknown
0.1957500000000003,1.404971400438768e-05,1.2427207785866344e-05,9.78969152738596e-06,1.892679885661896e-05,6.151451992432702e-05,2.434101359868504e-05,Unknown
0.1962692309999996,1.40789691495962e-05,1.2419969263788804e-05,9.79117364239386e-06,1.895677897834309e-05,6.147294327400633e-05,2.4482550072222733e-05,Unknown
0.19678846199999978,1.4101286332244764e-05,1.2430513806048777e-05,9.804539940324788e-06,1.897997072327168e-05,6.14225582314825e-05,2.462305151116536e-05,Unknown
0.19730769199999987,1.408945851767064e-05,1.246267064045188e-05,9.83421348168784e-06,1.90021030859235e-05,6.140638802403447e-05,2.4680700309573275e-05,Unknown
0.19782692300000004,1.4101759203841629e-05,1.248270808279278e-05,9.886432940762322e-06,1.902945977328966e-05,6.14062924695726e-05,2.468190416415297e-05,Unknown
0.19834615400000022,1.4176747173692464e-05,1.2485899411619668e-05,9.968735198184594e-06,1.9065878520842863e-05,6.138896896605399e-05,2.4673163405697037e-05,Unknown
0.1988653849999995,1.4275682824901644e-05,1.24870361109264e-05,1.0072028568168564e-05,1.9108194829707235e-05,6.133964675602721e-05,2.4671880186162984e-05,Unknown
0.1993846149999996,1.436499666465146e-05,1.2493253649463376e-05,1.0159573579342924e-05,1.9146172932887187e-05,6.124979730192717e-05,2.467395900339219e-05,Unknown
0.19990384599999977,1.4439206093101793e-05,1.2497115734252716e-05,1.020189453539009e-05,1.91683230716859e-05,6.112408267532609e-05,2.4658292665432663e-05,Unknown
0.20042307699999995,1.449725651973468e-05,1.2492410706688094e-05,1.021173582073728e-05,1.9164673418732387e-05,6.099449205654488e-05,2.4616996189464737e-05,Unknown
0.20094230800000012,1.4530065980255324e-05,1.2502838731431196e-05,1.021426409123045e-05,1.9126606842086804e-05,6.08872380028402e-05,2.457954634665985e-05,Unknown
0.20146153800000022,1.453398773815157e-05,1.2538721238018255e-05,1.0232476274486803e-05,1.9048044495256344e-05,6.078604599727136e-05,2.4567305725869192e-05,Unknown
0.2019807689999995,1.4541216241539344e-05,1.2579931971787224e-05,1.0311642301838191e-05,1.8934263945172795e-05,6.06657828312784e-05,2.4574133992337637e-05,Unknown
0.20249999999999968,1.4578938566254914e-05,1.262386104540969e-05,1.0472003946262974e-05,1.8812340904209903e-05,6.0583695116474925e-05,2.4593186156576577e-05,Unknown
0.20301923099999986,1.4632818267465082e-05,1.2695872168653631e-05,1.06649716125536e-05,1.872287958573984e-05,6.058293590642068e-05,2.4606098996927248e-05,Unknown
0.20353846200000003,1.4690053742930004e-05,1.281623766924379e-05,1.0827613725644091e-05,1.8688428166986544e-05,6.027161924488672e-05,2.4579112946054456e-05,Unknown
0.20405769200000012,1.4752977736643178e-05,1.2960983550465428e-05,1.093330786104598e-05,1.868998829787784e-05,5.925883728063837e-05,2.4497441120636813e-05,Unknown
0.2045769230000003,1.4815800807487032e-05,1.3085543697607966e-05,1.0983876195693524e-05,1.86971934337381e-05,5.812007048975542e-05,2.439221031542224e-05,Unknown
0.2050961539999996,1.4868749745231907e-05,1.3176080015333022e-05,1.099275357208029e-05,1.8702573823489093e-05,5.7584632633153576e-05,2.4326856963600465e-05,Unknown
0.20561538499999976,1.490785442294779e-05,1.3246962308897667e-05,1.099264508467808e-05,1.8707651043575305e-05,5.749630388510081e-05,2.4364511687894088e-05,Unknown
0.20613461499999985,1.4943032541989144e-05,1.3315577525343595e-05,1.105784773687502e-05,1.869608300485315e-05,5.749645239051336e-05,2.455382065764021e-05,Unknown
0.20665384600000003,1.4993383868927932e-05,1.3391367515029744e-05,1.1309522731167887e-05,1.862917535288359e-05,5.74991904036376e-05,2.4841188940592445e-05,Unknown
0.2071730770000002,1.5053649651957565e-05,1.347735337520982e-05,1.1848204557520812e-05,1.852028060289373e-05,5.749631902423287e-05,2.504735000867829e-05,Unknown
0.20769230800000038,1.509638063587328e-05,1.3576147781307868e-05,1.2628076477573542e-05,1.8501059645920698e-05,5.749215008967033e-05,2.506783315781343e-05,Unknown
0.20821153799999959,1.5110613297994068e-05,1.3682777279199236e-05,1.3445448666699782e-05,1.8698801651123636e-05,5.749352035079089e-05,2.490699217732787e-05,Unknown
0.20873076899999976,1.5108223273401986e-05,1.3765541266789845e-05,1.4099612156245169e-05,1.909640921389121e-05,5.749858636130161e-05,2.4560748816018956e-05,Unknown
0.20924999999999994,1.5102937111605312e-05,1.3786425565471947e-05,1.4533878228384263e-05,1.9603635071215703e-05,5.748439476445775e-05,2.417717172777702e-05,Unknown
0.2097692310000001,1.5098423334656724e-05,1.3753636752769371e-05,1.4824008338472396e-05,2.0156178445982425e-05,5.742245945553631e-05,2.403058883968209e-05,Unknown
0.2102884620000003,1.5097021135592569e-05,1.3707007288969378e-05,1.5089875128288084e-05,2.0701681373477985e-05,5.733203342653303e-05,2.40381509799294e-05,Unknown
0.21080769200000038,1.5106460869689489e-05,1.366774555270421e-05,1.543669705434344e-05,2.1177359279229025e-05,5.727712451113067e-05,2.3841093320071608e-05,Unknown
0.21132692299999967,1.5118638456842682e-05,1.3642585039132547e-05,1.588461913345147e-05,2.152854572483e-05,5.7282053871116015e-05,2.3379967029555605e-05,Unknown
0.21184615399999984,1.5115468713965772e-05,1.3629699130679155e-05,1.6315316920982827e-05,2.17349093969745e-05,5.728036197007414e-05,2.286658902824773e-05,Unknown
0.21236538500000002,1.5108584732741856e-05,1.3619157283305249e-05,1.6595322010101814e-05,2.1817308508907868e-05,5.7203118495108265e-05,2.24335954538755e-05,Unknown
0.2128846150000001,1.5114491292553126e-05,1.3610751251488867e-05,1.671808214316868e-05,2.1825653799020343e-05,5.706512422568911e-05,2.209382974562822e-05,Unknown
0.21340384600000029,1.5116404472919591e-05,1.3606168015822322e-05,1.675524051757273e-05,2.181676826283942e-05,5.689191682074188e-05,2.1864331553659364e-05,Unknown
0.21392307699999957,1.5104082191610515e-05,1.3601482269921148e-05,1.676145281096329e-05,2.182762790338105e-05,5.661718253360459e-05,2.1779767988159005e-05,Unknown
0.21444230799999975,1.5089040787037709e-05,1.3595366427662468e-05,1.675973650839205e-05,2.187010759286462e-05,5.614729384604854e-05,2.1782337673888907e-05,Unknown
0.21496153799999984,1.5064480058383228e-05,1.3588182404804056e-05,1.6758044230396253e-05,2.195348213911306e-05,5.569497598427615e-05,2.174887300566863e-05,Unknown
0.21548076900000002,1.5002984695117322e-05,1.3584735741579744e-05,1.6756757641035288e-05,2.210404267980199e-05,5.562307862639297e-05,2.1645750897696643e-05,Unknown
0.2160000000000002,1.487918019870138e-05,1.3595541161545024e-05,1.6752893111295804e-05,2.236097380235668e-05,5.553350792332786e-05,2.152811827564359e-05,Unknown
0.21651923100000037,1.469379611565484e-05,1.3632936760818778e-05,1.674672327819692e-05,2.2749916520154555e-05,5.488337298423242e-05,2.143394711150089e-05,Unknown
0.21703846199999965,1.4486912433459009e-05,1.3715759171300257e-05,1.6743475108289915e-05,2.326218837184372e-05,5.425014996648132e-05,2.13582206979404e-05,Unknown
0.21755769199999975,1.43001580898694e-05,1.3867154849649404e-05,1.675205554412991e-05,2.3863146955831406e-05,5.41418468270309e-05,2.1286481395887304e-05,Unknown
0.21807692299999992,1.4145268943449394e-05,1.4082485265176658e-05,1.6783233963274815e-05,2.4511237187217508e-05,5.423625920551218e-05,2.121741763484067e-05,Unknown
0.2185961540000001,1.4022290983623789e-05,1.4309758792662427e-05,1.6838753378415378e-05,2.516619865939236e-05,5.432416054791523e-05,2.1159931812680925e-05,Unknown
0.21911538500000027,1.39281907108484e-05,1.4493091840532824e-05,1.6905105809031535e-05,2.5794076994315848e-05,5.398937598337736e-05,2.111524740427125e-05,Unknown
0.21963461500000037,1.3861117582411166e-05,1.4616633027364726e-05,1.6967832346818526e-05,2.63774012606206e-05,5.295916309186193e-05,2.10764543759396e-05,Unknown
0.22015384599999965,1.3838116721065503e-05,1.469715107258849e-05,1.7024858334144847e-05,2.6919481135579007e-05,5.2119309215814446e-05,2.104213732925486e-05,Unknown
0.22067307699999983,1.3862260340645376e-05,1.475721655433886e-05,1.7083891030412653e-05,2.743387523768027e-05,5.205116176697547e-05,2.101532450969297e-05,Unknown
0.221192308,1.3894087412217544e-05,1.480553518649329e-05,1.7154485979658722e-05,2.792754844210849e-05,5.194992548501676e-05,2.099547308419078e-05,Unknown
0.2217115380000001,1.3890892603950749e-05,1.4841798428399934e-05,1.7239694882363068e-05,2.8392078805535585e-05,5.120411782683215e-05,2.0976478126245597e-05,Unknown
0.22223076900000027,1.3813735223591138e-05,1.4870067419634532e-05,1.733100257694543e-05,2.8810009595036405e-05,5.003960042268283e-05,2.095482258123712e-05,Unknown
0.22274999999999956,1.3638332215206368e-05,1.4893713577963568e-05,1.741843878153311e-05,2.9166524531180573e-05,4.866092453762295e-05,2.093815335509566e-05,Unknown
0.22326923099999973,1.341703661721384e-05,1.4910287894566832e-05,1.7505862112993986e-05,2.9454709955225705e-05,4.698836257714656e-05,2.0931510219285814e-05,Unknown
0.2237884619999999,1.322701380162246e-05,1.4917821491673753e-05,1.7611877349238203e-05,2.968003892076886e-05,4.5170654065631926e-05,2.0928577495425707e-05,Unknown
0.224307692,1.3070321226233278e-05,1.4919440020544238e-05,1.7762995264761316e-05,2.98620134110689e-05,4.392308433103323e-05,2.0927640356110488e-05,Unknown
0.22482692300000018,1.290063382397996e-05,1.49196860390529e-05,1.798126134605659e-05,3.0021215780588834e-05,4.365820473282272e-05,2.0933928450705e-05,Unknown
0.22534615400000035,1.2687686187266844e-05,1.4920641715000978e-05,1.8265841543001417e-05,3.016713459351744e-05,4.377919454117973e-05,2.094632304309496e-05,Unknown
0.22586538499999964,1.2472661551432857e-05,1.492526550459998e-05,1.858593694669789e-05,3.030376710716738e-05,4.364387749860807e-05,2.0955977271966248e-05,Unknown
0.22638461499999973,1.233580336728615e-05,1.4933309112720298e-05,1.8889530358291933e-05,3.043346809017265e-05,4.324690706551744e-05,2.095788701761381e-05,Unknown
0.2269038459999999,1.2277918732680476e-05,1.4937584799152111e-05,1.9120401152668395e-05,3.054805445454047e-05,4.285293322696048e-05,2.0957586305734183e-05,Unknown
0.22742307700000008,1.2241553878295424e-05,1.4937393237175664e-05,1.92491113335952e-05,3.063231038933341e-05,4.26290938977142e-05,2.0960095642817945e-05,Unknown
0.22794230800000026,1.218959997491268e-05,1.4945980940744232e-05,1.9295965340815365e-05,3.068166784701975e-05,4.257551594370268e-05,2.0961903922105103e-05,Unknown
0.22846153800000035,1.211550013632972e-05,1.4976307949777912e-05,1.93041620678368e-05,3.070443524089461e-05,4.259141404436112e-05,2.09614172736452e-05,Unknown
0.22898076899999964,1.2062974415332114e-05,1.5023782321411355e-05,1.9300194694023583e-05,3.0711282723072145e-05,4.259455275889366e-05,2.0963700633946987e-05,Unknown
0.22949999999999982,1.2068045031295775e-05,1.5068908601167905e-05,1.9293945845099227e-05,3.071130909298911e-05,4.258009535437298e-05,2.096784061501664e-05,Unknown
0.230019231,1.2095748626093508e-05,1.5096386810356145e-05,1.929113977547065e-05,3.07138191791525e-05,4.257859905027568e-05,2.0966168470164813e-05,Unknown
0.23053846200000017,1.2109757741269104e-05,1.5107007888424046e-05,1.9298106622808476e-05,3.073014948198568e-05,4.260395768861934e-05,2.096485903564801e-05,Unknown
0.23105769200000026,1.2109229069608488e-05,1.5109953123068531e-05,1.9328800403007435e-05,3.077188151546206e-05,4.2650070306061794e-05,2.0983057611492497e-05,Unknown
0.23157692299999955,1.211336327244108e-05,1.5110257818044616e-05,1.9397387401465773e-05,3.08495924606272e-05,4.271217741099436e-05,2.102595491056317e-05,Unknown
0.23209615399999972,1.2123722900273324e-05,1.5108715129908692e-05,1.948181576375109e-05,3.097653261477952e-05,4.278701170205024e-05,2.108029240962956e-05,Unknown
0.2326153849999999,1.2103856974789537e-05,1.5105657420982872e-05,1.9533867296662223e-05,3.116640397660929e-05,4.277092796603586e-05,2.113348568855368e-05,Unknown
0.233134615,1.20584351452679e-05,1.5101002982346817e-05,1.9543083454514684e-05,3.141959705805522e-05,4.2255397875034095e-05,2.1179926333984137e-05,Unknown
0.23365384600000016,1.2038058716743648e-05,1.5095135838155743e-05,1.9544353592192948e-05,3.1714730438244986e-05,4.0658543412791656e-05,2.1212664566739885e-05,Unknown
0.23417307700000034,1.206720637119765e-05,1.509165748906052e-05,1.957291032920567e-05,3.202252265872625e-05,3.820409227704096e-05,2.122451030476296e-05,Unknown
0.23469230799999963,1.2146952935219402e-05,1.509521894273668e-05,1.9634594417835217e-05,3.232756091627104e-05,3.656789469355497e-05,2.1223184614807203e-05,Unknown
0.23521153799999972,1.2258620969824594e-05,1.510448651523384e-05,1.9709518470791846e-05,3.263385058644854e-05,3.648843307941174e-05,2.122496932694725e-05,Unknown
0.2357307689999999,1.2356138069037204e-05,1.5113835598347594e-05,1.9779242277116177e-05,3.295197972568788e-05,3.58223396914631e-05,2.1227695338223508e-05,Unknown
0.23625000000000007,1.2413285152452938e-05,1.5121251847378257e-05,1.98441723535068e-05,3.328337522776896e-05,3.358545376370512e-05,2.1228925181057024e-05,Unknown
0.23676923100000025,1.2441835843819064e-05,1.512940904611928e-05,1.991181933692009e-05,3.361542113827916e-05,3.2007271580984854e-05,2.12633360978285e-05,Unknown
0.23728846199999953,1.245621805847079e-05,1.51433463723857e-05,1.9976532251857764e-05,3.3926359724585806e-05,3.189398855726658e-05,2.1352770755914772e-05,Unknown
0.23780769199999963,1.2485370902350625e-05,1.5167894526946131e-05,2.0025513642657083e-05,3.420023904918281e-05,3.165649576255385e-05,2.144001668010341e-05,Unknown
0.2383269229999998,1.2557408997375618e-05,1.5202315665665446e-05,2.0060817820479368e-05,3.443935273587083e-05,3.1149017217530654e-05,2.146564398367204e-05,Unknown
0.23884615399999998,1.2634199239463787e-05,1.5239633500983524e-05,2.009964723073317e-05,3.46545879412667e-05,3.1024447705376684e-05,2.146749884737285e-05,Unknown
0.23936538500000015,1.2673203320765254e-05,1.527336738533991e-05,2.016852357123786e-05,3.485094417178232e-05,3.1179115212607366e-05,2.154330394966305e-05,Unknown
0.23988461500000025,1.2687983837255466e-05,1.530117491799295e-05,2.029191268084932e-05,3.502479424534474e-05,3.136179191075443e-05,2.177818440338434e-05,Unknown
0.24040384599999953,1.2696065109390446e-05,1.5322092901583097e-05,2.04615922770428e-05,3.516764911658678e-05,3.151739067338685e-05,2.2205360937906785e-05,Unknown
0.2409230769999997,1.2714038977536895e-05,1.533509803058811e-05,2.0636897695476043e-05,3.527530528943945e-05,3.164024082242061e-05,2.274380537397472e-05,Unknown
0.24144230799999988,1.274896406966354e-05,1.534053075991964e-05,2.0786819513017865e-05,3.535271204234532e-05,3.166683085920475e-05,2.3179359014802787e-05,Unknown
0.24196153799999998,1.2777940098759542e-05,1.5341081527660278e-05,2.0912569019096065e-05,3.5407391401956224e-05,3.143883248229319e-05,2.336605262116873e-05,Unknown
0.24248076900000015,1.2793321337238362e-05,1.5340348429528806e-05,2.103040343679931e-05,3.544356718141615e-05,3.097133415949176e-05,2.338956820515508e-05,Unknown
0.24300000000000033,1.2799197357683489e-05,1.5340291288589527e-05,2.114769335968318e-05,3.546438255365338e-05,3.06585009566514e-05,2.338424780088832e-05,Unknown
0.24351923099999961,1.2790337132851508e-05,1.5341616644102755e-05,2.125555305376101e-05,3.547503680856065e-05,3.073051210582248e-05,2.338526824904512e-05,Unknown
0.2440384619999998,1.2782058581285262e-05,1.5345917356902924e-05,2.133989626976915e-05,3.5480651965734294e-05,3.0906502530790586e-05,2.3410442631441036e-05,Unknown
0.24455769199999988,1.2794820603404563e-05,1.5355353186753086e-05,2.139836172862004e-05,3.548329214318419e-05,3.098003541026899e-05,2.3453051009286463e-05,Unknown
0.24507692300000006,1.2824316831214094e-05,1.5370626498411916e-05,2.1441237885741986e-05,3.5482687746387025e-05,3.103160636944274e-05,2.346604399589326e-05,Unknown
0.24559615400000023,1.2864518359984875e-05,1.5389763667661884e-05,2.147876979365556e-05,3.547821447265124e-05,3.110223685529476e-05,2.3456656374671385e-05,Unknown
0.24611538499999952,1.2903116800878114e-05,1.5408389130929724e-05,2.1514491221083017e-05,3.546944331419308e-05,3.1128685254782663e-05,2.3445547207579813e-05,Unknown
0.2466346149999996,1.2911357841977576e-05,1.5423878897441504e-05,2.1548778824765643e-05,3.5456705203312304e-05,3.098071537464907e-05,2.3463900686756107e-05,Unknown
0.2471538459999998,1.290025374753977e-05,1.5437925988402836e-05,2.1583877321533363e-05,3.544311287015377e-05,3.060542745978071e-05,2.3692195087900895e-05,Unknown
0.24767307699999996,1.2921103776040526e-05,1.5451939701122188e-05,2.162205589683942e-05,3.543380373983098e-05,3.0202651223319373e-05,2.4216219689838763e-05,Unknown
0.24819230800000014,1.2987504141708344e-05,1.5464446095576162e-05,2.1659833900051835e-05,3.543070954855949e-05,3.0008362698816088e-05,2.4751806457644243e-05,Unknown
0.24871153800000023,1.3072988857104917e-05,1.5474921517622953e-05,2.168835630550629e-05,3.543074651395939e-05,3.004032140723024e-05,2.500241694287413e-05,Unknown
0.24923076899999952,1.3167690031361871e-05,1.548687162218112e-05,2.1703164651177484e-05,3.543050443214942e-05,3.0177642317972e-05,2.5019661458918324e-05,Unknown
0.2497499999999997,1.328874777127186e-05,1.5504144239354597e-05,2.170799389686585e-05,3.5429201699237786e-05,3.030743120883876e-05,2.5079857604839745e-05,Unknown
0.25026923099999987,1.3444804170142478e-05,1.552571133364433e-05,2.170737060474497e-05,3.542657805782054e-05,3.038357854073038e-05,2.535949769611689e-05,Unknown
0.25078846200000005,1.3607578030997325e-05,1.5547775458803658e-05,2.1701919751818924e-05,3.542088422148796e-05,3.039177165643077e-05,2.575734634518695e-05,Unknown
0.25130769200000014,1.3737943619381688e-05,1.5567944277854394e-05,2.169552695660855e-05,3.541045266161838e-05,3.027716734246029e-05,2.6058827778893344e-05,Unknown
0.2518269230000003,1.382165565347427e-05,1.558464868816105e-05,2.172854403302404e-05,3.5395617208369506e-05,3.0039917495372067e-05,2.6195390036078155e-05,Unknown
0.2523461539999996,1.3875099239785752e-05,1.559607268824822e-05,2.188512028670821e-05,3.5377896383602554e-05,2.9825965351507455e-05,2.6233512922678968e-05,Unknown
0.2528653849999998,1.393614069556986e-05,1.5600367801975443e-05,2.220025696087133e-05,3.535893727236479e-05,2.9738275148539944e-05,2.623320398932663e-05,Unknown
0.25338461499999987,1.4007720015672349e-05,1.5595307439586056e-05,2.25917855598448e-05,3.534007308384694e-05,2.9728773187638267e-05,2.6221321708649397e-05,Unknown
0.25390384600000004,1.4053605638567162e-05,1.5578878174835407e-05,2.294554203143223e-05,3.532145578778091e-05,2.973773768165563e-05,2.621580109189198e-05,Unknown
0.2544230770000002,1.407266224817486e-05,1.55528348333366e-05,2.321526276517443e-05,3.530148965214455e-05,2.97453806746464e-05,2.6220519453198263e-05,Unknown
0.2549423079999995,1.4080087751391762e-05,1.5527013916285488e-05,2.3413802677205957e-05,3.5276827442040814e-05,2.974036911754244e-05,2.621856734061292e-05,Unknown
0.2554615379999996,1.4079016435190569e-05,1.5517757764030157e-05,2.356500466317771e-05,3.524427994740466e-05,2.971429644613016e-05,2.6199769730346147e-05,Unknown
0.2559807689999998,1.4078229995898742e-05,1.5533850196603097e-05,2.3686381921633143e-05,3.520501124159552e-05,2.9663182920449435e-05,2.6180652649152224e-05,Unknown
0.25649999999999995,1.4077541378889858e-05,1.5562265093105553e-05,2.3787523004034443e-05,3.5165222016675335e-05,2.9620011305155184e-05,2.61848127535656e-05,Unknown
0.2570192310000001,1.4074790024008678e-05,1.5580038298347488e-05,2.3868833250779257e-05,3.513067455896827e-05,2.9624053351270677e-05,2.623160879973837e-05,Unknown
0.2575384620000003,1.4074702494744888e-05,1.5574790157716455e-05,2.3925265831263695e-05,3.5102676480987015e-05,2.9649465422401923e-05,2.6346856626305624e-05,Unknown
0.2580576919999995,1.4070788879461314e-05,1.554901835906318e-05,2.3953108135959943e-05,3.508063608753758e-05,2.9658418708731044e-05,2.6582046707610724e-05,Unknown
0.2585769229999997,1.4056988604961436e-05,1.552076960918749e-05,2.3954344873631244e-05,3.506664548186188e-05,2.966698031754906e-05,2.702648273213669e-05,Unknown
0.25909615399999986,1.404334500497044e-05,1.5509253609291797e-05,2.3937288854671344e-05,3.5066991358365305e-05,2.970249319920678e-05,2.7735227891689025e-05,Unknown
0.25961538500000003,1.4034314922376144e-05,1.5510754613288644e-05,2.3915236932157705e-05,3.50890959532782e-05,2.9766394100433324e-05,2.8543804595192238e-05,Unknown
0.2601346150000001,1.4041621470210478e-05,1.5510938059669996e-05,2.3901318678899787e-05,3.5135616592967854e-05,2.9853459199385385e-05,2.907503918811237e-05,Unknown
0.2606538460000003,1.4095563513738918e-05,1.551007604229912e-05,2.390418818626612e-05,3.5199123499683204e-05,2.997352749370862e-05,2.9173235010334537e-05,Unknown
0.2611730769999996,1.4187605883236348e-05,1.551416859213305e-05,2.39292341633558e-05,3.5264549684428413e-05,3.0130713525634e-05,2.91824576617998e-05,Unknown
0.26169230799999976,1.4273464498336518e-05,1.5519656040374997e-05,2.397960129644952e-05,3.532097476490631e-05,3.0278811601483577e-05,2.948545039091588e-05,Unknown
0.26221153799999986,1.4333231616248944e-05,1.5521617716584412e-05,2.4056126854031485e-05,3.5367067056376384e-05,3.0355480968906368e-05,2.9988053138975525e-05,Unknown
0.26273076900000003,1.4380377317554743e-05,1.5521682093887465e-05,2.415192996564984e-05,3.540517922546931e-05,3.0359685216034255e-05,3.0386460741278643e-05,Unknown
0.2632500000000002,1.4449433838682723e-05,1.552258217180331e-05,2.4244001419932728e-05,3.543564101452362e-05,3.0335728704910426e-05,3.0590951730651594e-05,Unknown
0.2637692310000004,1.4543229976486652e-05,1.552768247363522e-05,2.430618053437432e-05,3.545463156507395e-05,3.0311588314348974e-05,3.067754559592028e-05,Unknown
0.26428846199999967,1.4591095903442192e-05,1.5535283954406696e-05,2.433354650704912e-05,3.545857900363151e-05,3.029192754437031e-05,3.0713088005660026e-05,Unknown
0.26480769199999976,1.4565360544332932e-05,1.553640128805319e-05,2.43395655501422e-05,3.545081796224439e-05,3.02717749155078e-05,3.072407833306232e-05,Unknown
0.26532692299999994,1.4552567644469533e-05,1.553127973749725e-05,2.4336320903974823e-05,3.5437629835121665e-05,3.024374280963636e-05,3.072672572119807e-05,Unknown
0.2658461540000001,1.4595012208667074e-05,1.5526856874441177e-05,2.4329008271764503e-05,3.542158198675907e-05,3.0202559888754123e-05,3.072836347152995e-05,Unknown
0.2663653850000003,1.4633753100756583e-05,1.5522789878816737e-05,2.4321692660324916e-05,3.540076571627093e-05,3.014674173394012e-05,3.07199318381202e-05,Unknown
0.2668846150000004,1.4639081603017336e-05,1.551615796126819e-05,2.432271957273698e-05,3.5370381525751606e-05,3.0086129126552945e-05,3.0701389584300166e-05,Unknown
0.26740384599999967,1.463126087936963e-05,1.5502140465320007e-05,2.4340725270755444e-05,3.533308896620679e-05,3.0024905293510897e-05,3.067781340236585e-05,Unknown
0.26792307699999984,1.4657650337822005e-05,1.5472781656990812e-05,2.4370360385837057e-05,3.530529042573143e-05,2.9944930070794997e-05,3.064433794330472e-05,Unknown
0.268442308,1.4770879567642323e-05,1.5429465385010023e-05,2.43947107035901e-05,3.529770129952806e-05,2.983164901900502e-05,3.060328557692523e-05,Unknown
0.2689615380000001,1.4960945463822309e-05,1.5385460378356977e-05,2.440518774061497e-05,3.530186329399582e-05,2.9699757136590967e-05,3.057842388188832e-05,Unknown
0.2694807690000003,1.5181146776437662e-05,1.5350305999960573e-05,2.440436561811592e-05,3.530532863044178e-05,2.960552261187072e-05,3.061398520444188e-05,Unknown
0.2699999999999996,1.540177988987353e-05,1.5317913337751145e-05,2.4395549541472687e-05,3.530220824747105e-05,2.9608767647097657e-05,3.072608973681079e-05,Unknown
0.27051923099999975,1.56115298908061e-05,1.527253261390359e-05,2.438222046161871e-05,3.529354579997056e-05,2.968954930508903e-05,3.084151635415272e-05,Unknown
0.2710384619999999,1.5812344166730123e-05,1.5199733778313549e-05,2.437146173544848e-05,3.528587047646913e-05,2.9766388636576496e-05,3.086890744615186e-05,Unknown
0.271557692,1.600763031901576e-05,1.509130503902935e-05,2.4367476225840164e-05,3.528220205112969e-05,2.9787216208479205e-05,3.082953479752284e-05,Unknown
0.2720769230000002,1.6195089049188914e-05,1.4956376558531732e-05,2.4367216366378623e-05,3.528001368718303e-05,2.975098051975476e-05,3.0815566440493417e-05,Unknown
0.27259615400000037,1.636098590483031e-05,1.4829466086951416e-05,2.437094178083912e-05,3.5275516966458645e-05,2.9691010067128e-05,3.080975882236557e-05,Unknown
0.27311538499999966,1.6477618660073418e-05,1.4749640893882542e-05,2.438445083755374e-05,3.526582705020109e-05,2.9660374413707453e-05,3.0681076666324175e-05,Unknown
0.27363461499999975,1.6532061659314746e-05,1.472807646683905e-05,2.440765346607924e-05,3.525247090329165e-05,2.966172054923391e-05,3.0447380587294795e-05,Unknown
0.2741538459999999,1.6547554883110423e-05,1.4744232454824354e-05,2.443738315504688e-05,3.524097909842032e-05,2.960192935858339e-05,3.0309776198710423e-05,Unknown
0.2746730770000001,1.6552444035487866e-05,1.4766070370950363e-05,2.4475309828567267e-05,3.5236090092897016e-05,2.9441649620435083e-05,3.030310104946961e-05,Unknown
0.2751923080000003,1.6557158984624982e-05,1.4772595668098245e-05,2.452006077388014e-05,3.523853552225845e-05,2.9298163179290453e-05,3.027726839444672e-05,Unknown
0.27571153800000037,1.656287739124026e-05,1.4767776913255916e-05,2.456220218684012e-05,3.524480484163962e-05,2.9254282309986743e-05,3.021317996262837e-05,Unknown
0.27623076899999965,1.6563533298253845e-05,1.4764765574023422e-05,2.459375129424076e-05,3.525079848234697e-05,2.9254532323937383e-05,3.0183941573788568e-05,Unknown
0.27674999999999983,1.6560737389654255e-05,1.4764656018181272e-05,2.4615593873481615e-05,3.525565329318487e-05,2.924978410574328e-05,3.0182325430823216e-05,Unknown
0.277269231,1.6568057027453866e-05,1.4764924939052474e-05,2.4632873942825782e-05,3.526104457639839e-05,2.9242428193987773e-05,3.018224583529089e-05,Unknown
0.2777884620000002,1.658546865057214e-05,1.4766710921079429e-05,2.464886092162589e-05,3.5268963959569815e-05,2.922109254582884e-05,3.0182209191352575e-05,Unknown
0.2783076920000003,1.6598612086289252e-05,1.4767826976400944e-05,2.466412429984995e-05,3.527972155639122e-05,2.9101159869245868e-05,3.0174595363204252e-05,Unknown
0.27882692299999956,1.6584174442011745e-05,1.4765424407406556e-05,2.4677006430561485e-05,3.529058920028359e-05,2.876350939539329e-05,3.0161975888212272e-05,Unknown
0.27934615399999974,1.6533662405401996e-05,1.4765723994190984e-05,2.468537040566713e-05,3.529777853348408e-05,2.8392354419539668e-05,3.0155663557340373e-05,Unknown
0.2798653849999999,1.648943906315371e-05,1.4786044776756862e-05,2.468923316887969e-05,3.529791623323996e-05,2.834243328293207e-05,3.015630356173252e-05,Unknown
0.280384615,1.6491815278387127e-05,1.4839227084972898e-05,2.4690462297337905e-05,3.5285283268247914e-05,2.825090246315144e-05,3.016190566987476e-05,Unknown
0.2809038460000002,1.6523370516422984e-05,1.4908650221007505e-05,2.4690285711030924e-05,3.525091488979876e-05,2.7698550280999317e-05,3.0168663951239535e-05,Unknown
0.28142307700000035,1.6553389182042406e-05,1.4959988276089044e-05,2.468845513163658e-05,3.519092909952008e-05,2.7377394351878496e-05,3.0170773431786644e-05,Unknown
0.28194230799999964,1.657236844714911e-05,1.4979911356087944e-05,2.468498526753019e-05,3.5116904724583344e-05,2.736545126056633e-05,3.0170159635848463e-05,Unknown
0.28246153799999973,1.6582919451615103e-05,1.4976708505574676e-05,2.4682931182200723e-05,3.5051102304210907e-05,2.6576002364238675e-05,3.0170482972628952e-05,Unknown
0.2829807689999999,1.6602851122444297e-05,1.4958567002184992e-05,2.4687334354556102e-05,3.500979126449947e-05,2.5333764065422876e-05,3.017034390505992e-05,Unknown
0.2835000000000001,1.6650459211987895e-05,1.4923973035557494e-05,2.469826973625436e-05,3.499480180756678e-05,2.48514533210344e-05,3.0169312558987226e-05,Unknown
0.28401923100000026,1.6720038679372096e-05,1.4861667158029956e-05,2.4709352278169333e-05,3.499459637725995e-05,2.4873109262741786e-05,3.0168588955032543e-05,Unknown
0.28453846199999955,1.679203025279435e-05,1.4761601315784908e-05,2.4715981322965436e-05,3.497913971882617e-05,2.473616907506172e-05,3.0167577288635983e-05,Unknown
0.28505769199999964,1.6846106082027254e-05,1.4628714869769396e-05,2.4720824146448827e-05,3.4902407647734855e-05,2.451257822000328e-05,3.0163686444756332e-05,Unknown
0.2855769229999998,1.6869398713426635e-05,1.4491665791168048e-05,2.473439323481336e-05,3.4752091276688304e-05,2.436033387987924e-05,3.015131826562072e-05,Unknown
0.286096154,1.687286578061802e-05,1.4383589433030728e-05,2.4769559051028943e-05,3.459574312255058e-05,2.4267940790646484e-05,3.0126182235260244e-05,Unknown
0.28661538500000017,1.687551191163426e-05,1.4309569425872212e-05,2.482504581734095e-05,3.451361807243999e-05,2.4215731114801117e-05,3.0087163406606543e-05,Unknown
0.28713461500000026,1.6880846994581765e-05,1.425132968191973e-05,2.48817808257182e-05,3.450523932897798e-05,2.420473733541407e-05,3.003751695872548e-05,Unknown
0.28765384599999955,1.688494346396577e-05,1.4183848965238398e-05,2.4923203132943055e-05,3.452179264151554e-05,2.4209660917682017e-05,2.9988613884167148e-05,Unknown
0.2881730769999997,1.6883347627012124e-05,1.409275313110667e-05,2.494619833555616e-05,3.453455679917355e-05,2.420827265813872e-05,2.9950346635224044e-05,Unknown
0.2886923079999999,1.6877682584827952e-05,1.399481924019122e-05,2.495720639006585e-05,3.45389025720729e-05,2.4207680182755785e-05,2.9932013418989045e-05,Unknown
0.289211538,1.6874935104340763e-05,1.391897238481887e-05,2.497196487605468e-05,3.4538648214578965e-05,2.420962174052503e-05,2.993363769651516e-05,Unknown
0.28973076900000017,1.687756581912513e-05,1.387462765625518e-05,2.500079237250848e-05,3.453591388064143e-05,2.4210664541306417e-05,2.98783298215434e-05,Unknown
0.29025000000000034,1.6898111065335165e-05,1.3852455062893337e-05,2.5032356032485978e-05,3.452504161512034e-05,2.4210393645329807e-05,2.9629540908032927e-05,Unknown
0.29076923099999963,1.694878448870218e-05,1.3838491617003046e-05,2.50522689149156e-05,3.450325996184988e-05,2.4207375325852907e-05,2.919614422406888e-05,Unknown
0.2912884619999998,1.699741610001019e-05,1.38153476632665e-05,2.506043003164543e-05,3.447961183078746e-05,2.420118443320038e-05,2.8808430176949247e-05,Unknown
0.2918076919999999,1.7005619796327015e-05,1.3778249826005289e-05,2.5061492228499496e-05,3.446228895222614e-05,2.4194252252910152e-05,2.8646705914694917e-05,Unknown
0.29232692300000007,1.6984807545083516e-05,1.3760293637312132e-05,2.505836118976757e-05,3.444856879678821e-05,2.4192766740725075e-05,2.8640891150499548e-05,Unknown
0.29284615400000025,1.6957169080805476e-05,1.37897043155534e-05,2.505736744276296e-05,3.4429547885264885e-05,2.4194938003221583e-05,2.865246466900961e-05,Unknown
0.29336538499999953,1.6918686064632662e-05,1.3843661246006124e-05,2.506437256851201e-05,3.440477413108196e-05,2.418506978073239e-05,2.8656310867764773e-05,Unknown
0.2938846149999996,1.6841437476716416e-05,1.388251380747578e-05,2.507310917616768e-05,3.4386413594986465e-05,2.416908062961825e-05,2.866872115028074e-05,Unknown
0.2944038459999998,1.6698557259251102e-05,1.3893250690092524e-05,2.5073111409291977e-05,3.438052546044211e-05,2.4166738402032876e-05,2.866620318638284e-05,Unknown
0.294923077,1.652205710384082e-05,1.3892913475087273e-05,2.5065839929989216e-05,3.438106640888594e-05,2.416128139499624e-05,2.863289299114872e-05,Unknown
0.29544230800000015,1.6382574487696702e-05,1.3895570225464e-05,2.5057699814645463e-05,3.438174527178844e-05,2.414041595558866e-05,2.858887523862905e-05,Unknown
0.29596153800000025,1.6299764686889857e-05,1.3895922488382154e-05,2.5048096835673586e-05,3.4380367000106845e-05,2.412393467543728e-05,2.8549874083127e-05,Unknown
0.29648076899999953,1.6240816277079946e-05,1.3900112446746302e-05,2.5031595618974584e-05,3.437880196828321e-05,2.411119478146809e-05,2.851465489038786e-05,Unknown
0.2969999999999997,1.6176204739341846e-05,1.392572687873036e-05,2.500357147265776e-05,3.438025928186033e-05,2.4078961255400472e-05,2.848538838651282e-05,Unknown
0.2975192309999999,1.6106509055845384e-05,1.3976032914499391e-05,2.49674861196812e-05,3.438366546224451e-05,2.4000800533896938e-05,2.8473353257182742e-05,Unknown
0.29803846200000006,1.6056140037759563e-05,1.403430615929153e-05,2.493583230554013e-05,3.438570033423976e-05,2.387155041704537e-05,2.847329989617741e-05,Unknown
0.29855769200000015,1.604159491739205e-05,1.4074713895943913e-05,2.491815465337548e-05,3.438585771966926e-05,2.373601850223703e-05,2.8454738385749657e-05,Unknown
0.2990769230000003,1.605763557917199e-05,1.4100069211024792e-05,2.4913877678140272e-05,3.4384013233405726e-05,2.364226987647296e-05,2.840716062888357e-05,Unknown
0.2995961539999996,1.6094859563809675e-05,1.4131719668200854e-05,2.4916882736253268e-05,3.437769735023387e-05,2.3598117300666268e-05,2.8349442358467824e-05,Unknown
0.3001153849999998,1.613942475216841e-05,1.4166016627555913e-05,2.4921153388332825e-05,3.4365369961309737e-05,2.3594976851208635e-05,2.829234462204671e-05,Unknown
0.3006346149999999,1.616638727016409e-05,1.4192939134895646e-05,2.4922773459834828e-05,3.4347025006185946e-05,2.3618498327948903e-05,2.823075354750599e-05,Unknown
0.30115384600000006,1.61750732212402e-05,1.421481295017485e-05,2.4920070578353327e-05,3.432398125900495e-05,2.363483645313254e-05,2.815642679012412e-05,Unknown
0.30167307700000023,1.618832746408737e-05,1.422948071294114e-05,2.4913082631849676e-05,3.430119033214434e-05,2.3630394774685512e-05,2.805858606335957e-05,Unknown
0.3021923079999995,1.6221155558791664e-05,1.4219643730361512e-05,2.490318986164906e-05,3.428409259641873e-05,2.362568828697446e-05,2.7928310232666987e-05,Unknown
0.3027115379999996,1.6277855748744222e-05,1.416571970168983e-05,2.489284625053121e-05,3.427529519447992e-05,2.362501130845605e-05,2.77764434068922e-05,Unknown
0.3032307689999998,1.633661132395038e-05,1.4070576271422846e-05,2.4883986937672208e-05,3.4273994248150887e-05,2.3627013154005475e-05,2.7625084348473597e-05,Unknown
0.30374999999999996,1.637574221629495e-05,1.3957221919090587e-05,2.4876710562692517e-05,3.427498129604324e-05,2.3631889352196767e-05,2.751242606942966e-05,Unknown
0.30426923100000014,1.6406047513227888e-05,1.3840335267202245e-05,2.4867332723054245e-05,3.427312379868524e-05,2.363028143057592e-05,2.7476868804448573e-05,Unknown
0.3047884620000003,1.6443781454402346e-05,1.3716816444701084e-05,2.484863875516768e-05,3.426861700935082e-05,2.3630633396457163e-05,2.747817975778411e-05,Unknown
0.3053076919999995,1.6498382544768087e-05,1.3583081508802978e-05,2.481608942945146e-05,3.426467068032121e-05,2.363668000223604e-05,2.7464727500463263e-05,Unknown
0.3058269229999997,1.655815282885422e-05,1.3452526138110431e-05,2.4770891797762063e-05,3.4263265793842224e-05,2.3631753244414733e-05,2.7459855043869705e-05,Unknown
0.30634615399999987,1.6589979289497536e-05,1.335184807677196e-05,2.4719854094499666e-05,3.4263758299602005e-05,2.359965473507068e-05,2.7485872816797172e-05,Unknown
0.30686538500000005,1.6590945053877564e-05,1.3295249555919526e-05,2.4675938138403384e-05,3.426092709840695e-05,2.352890534384343e-05,2.7541015042618223e-05,Unknown
0.30738461500000014,1.6590408656076476e-05,1.3273481960928191e-05,2.4650750715489972e-05,3.424480192442725e-05,2.344797200330328e-05,2.760699576613628e-05,Unknown
0.3079038460000003,1.6604792867469517e-05,1.3271457576084875e-05,2.4643204537764853e-05,3.420894210235042e-05,2.3405134512559552e-05,2.767444377060411e-05,Unknown
0.3084230769999996,1.6631690602160636e-05,1.32820888527091e-05,2.4641923228874867e-05,3.415977493674135e-05,2.3389657799856024e-05,2.77805991301223e-05,Unknown
0.3089423079999998,1.6659599284038685e-05,1.3303982642146966e-05,2.4634904658616094e-05,3.4112634578034686e-05,2.3362871038425965e-05,2.7910313570215487e-05,Unknown
0.30946153799999987,1.6676121987734697e-05,1.3334492535819646e-05,2.4621497841111865e-05,3.407722473329097e-05,2.3311230976975896e-05,2.798008421606571e-05,Unknown
0.30998076900000004,1.6681942172646818e-05,1.3366186419445544e-05,2.461841432155006e-05,3.405144787840199e-05,2.324056827105286e-05,2.798314939970714e-05,Unknown
0.3105000000000002,1.668349226559614e-05,1.3390837630678744e-05,2.4633717164359863e-05,3.4029390615026567e-05,2.3187845463052954e-05,2.799348701204608e-05,Unknown
0.3110192309999995,1.6682469561631345e-05,1.3404933308015675e-05,2.4653314421870236e-05,3.4011098828987505e-05,2.318216597322229e-05,2.802983228129776e-05,Unknown
0.3115384619999997,1.6681228916398043e-05,1.341012446699441e-05,2.4672030945543905e-05,3.400525614739023e-05,2.3200981239205728e-05,2.805315900884532e-05,Unknown
0.3120576919999998,1.6681199157453033e-05,1.34118975933957e-05,2.470005784477944e-05,3.401880867819666e-05,2.3219956127063725e-05,2.805997650572776e-05,Unknown
0.31257692299999995,1.6680896299934784e-05,1.3411669574713802e-05,2.473670234658897e-05,3.4046227467375074e-05,2.3231391403923373e-05,2.809609827075602e-05,Unknown
0.3130961540000001,1.6681409584100734e-05,1.3404610258985212e-05,2.4769287327622032e-05,3.407479560393537e-05,2.3224864594875986e-05,2.8169464151962275e-05,Unknown
0.3136153850000003,1.667940620506658e-05,1.3398416523570911e-05,2.4787528397568225e-05,3.409359045293552e-05,2.321013409076918e-05,2.816094383915068e-05,Unknown
0.3141346149999995,1.666754914532254e-05,1.34059210424751e-05,2.4789434232149796e-05,3.409807647741393e-05,2.3206719395619265e-05,2.80205011197286e-05,Unknown
0.3146538459999997,1.665269601831499e-05,1.340674437701236e-05,2.478084112812027e-05,3.4096669230279924e-05,2.3205530953419383e-05,2.791769816420229e-05,Unknown
0.31517307699999986,1.664915175150117e-05,1.3372544300944968e-05,2.4765228170389183e-05,3.4108856938935386e-05,2.3191079704890212e-05,2.7914507586133705e-05,Unknown
0.31569230800000003,1.665966701382889e-05,1.3323672972888873e-05,2.4737674199567567e-05,3.4143535815503506e-05,2.316658385618397e-05,2.7903678103340996e-05,Unknown
0.3162115380000001,1.6678752996865272e-05,1.329579741099692e-05,2.4693614991738902e-05,3.41855983349808e-05,2.3138295567896087e-05,2.7924384102096743e-05,Unknown
0.3167307690000003,1.6699442631413537e-05,1.3287849765918937e-05,2.463609694141963e-05,3.421331725113407e-05,2.3111110694115e-05,2.8002220796098988e-05,Unknown
0.3172499999999996,1.671778535772887e-05,1.3283365452564643e-05,2.457383787511737e-05,3.4220757110631e-05,2.3092496765096637e-05,2.802556325602221e-05,Unknown
0.31776923099999976,1.6737226965931393e-05,1.3276676143434705e-05,2.4519474292378616e-05,3.4217354158312385e-05,2.3083380878177443e-05,2.803675387007616e-05,Unknown
0.31828846199999994,1.675740732170819e-05,1.3273439781126194e-05,2.4484456346521537e-05,3.421265873756362e-05,2.3079338515579856e-05,2.810613426722522e-05,Unknown
0.31880769200000003,1.6772237676087285e-05,1.327481136146615e-05,2.447016291684361e-05,3.4209858029274784e-05,2.3078720157577145e-05,2.812951574470417e-05,Unknown
0.3193269230000002,1.6783680827465743e-05,1.3259088442155929e-05,2.446916327274501e-05,3.4209217334764725e-05,2.30839562116779e-05,2.8070138988097057e-05,Unknown
0.3198461540000004,1.6806626028502368e-05,1.321041486101674e-05,2.447463262306107e-05,3.420853246939463e-05,2.3095150580579173e-05,2.8034264502426177e-05,Unknown
0.32036538499999967,1.6857563224204198e-05,1.3156385126189903e-05,2.448568241526108e-05,3.420231173311443e-05,2.3097165305561573e-05,2.806561869011556e-05,Unknown
0.32088461499999976,1.69121459586514e-05,1.3138195421493322e-05,2.450359900777596e-05,3.4187280204347534e-05,2.308040690148747e-05,2.806604402153489e-05,Unknown
0.32140384599999994,1.692321331224033e-05,1.31478281602204e-05,2.452724208022541e-05,3.416751654928546e-05,2.3063667970517023e-05,2.7955595062477947e-05,Unknown
0.3219230770000001,1.6913240882784587e-05,1.3136492568899694e-05,2.455326916352757e-05,3.414882276927652e-05,2.3058856279376863e-05,2.7811890586422187e-05,Unknown
0.3224423080000003,1.692958582638092e-05,1.3095620117863844e-05,2.4573608678767145e-05,3.413093035638674e-05,2.305951686719917e-05,2.777657562779712e-05,Unknown
0.3229615380000004,1.694292189398524e-05,1.3063547687286131e-05,2.4575209722304167e-05,3.410979231905371e-05,2.3064541471856103e-05,2.7865279631388477e-05,Unknown
0.32348076899999967,1.6916165321302934e-05,1.3053432446974924e-05,2.4550718285228853e-05,3.4083282164668846e-05,2.3068755891466587e-05,2.7953954000079663e-05,Unknown
0.32399999999999984,1.6870480485731168e-05,1.304993892011064e-05,2.450913915241333e-05,3.4053274601226714e-05,2.3068302670330876e-05,2.796928161593512e-05,Unknown
0.324519231,1.6828126670786398e-05,1.3041690750453653e-05,2.4472487225869715e-05,3.402391040410684e-05,2.3068904250893025e-05,2.794992962319929e-05,Unknown
0.3250384620000002,1.6785042510503943e-05,1.3034553349202213e-05,2.445564290387624e-05,3.399760073628978e-05,2.3071409592944485e-05,2.7931627094077543e-05,Unknown
0.3255576920000003,1.6739422438941917e-05,1.3034862856449444e-05,2.445229876369927e-05,3.3974863168005507e-05,2.3076157752649204e-05,2.792653015198456e-05,Unknown
0.3260769229999996,1.6709696727797565e-05,1.3019762655732169e-05,2.4450404769265785e-05,3.395759841776681e-05,2.308417199444492e-05,2.7944986353206653e-05,Unknown
0.32659615399999975,1.670619124941569e-05,1.297794316261897e-05,2.444085227306452e-05,3.394903459871469e-05,2.3091757405914225e-05,2.797615030490336e-05,Unknown
0.3271153849999999,1.6699321687992705e-05,1.2926142023085656e-05,2.440630280696041e-05,3.394769392884949e-05,2.3095905110948798e-05,2.8000330890744e-05,Unknown
0.327634615,1.6668000087639975e-05,1.2865633758908649e-05,2.4338388175935324e-05,3.394808985702608e-05,2.3099512468802247e-05,2.8010394080327664e-05,Unknown
0.3281538460000002,1.66328528202052e-05,1.2774685220354204e-05,2.4257211081402965e-05,3.394910058648317e-05,2.3108981143464565e-05,2.8023295146775407e-05,Unknown
0.32867307700000037,1.6601534222290614e-05,1.2637318384887729e-05,2.4191621776951902e-05,3.395109151234632e-05,2.3141186860334163e-05,2.8061059943115915e-05,Unknown
0.32919230799999966,1.6555980974843267e-05,1.247750776262571e-05,2.4157851221786985e-05,3.395066784423445e-05,2.3206095586959047e-05,2.8115840716055564e-05,Unknown
0.32971153799999975,1.6499652887070652e-05,1.2339219738158284e-05,2.415659946485577e-05,3.394510716432121e-05,2.3272511990674324e-05,2.816660806532847e-05,Unknown
0.3302307689999999,1.6451663475064946e-05,1.22368334856042e-05,2.417415991318213e-05,3.39328767996875e-05,2.331096492898703e-05,2.820163837158128e-05,Unknown
0.3307500000000001,1.6415251284128604e-05,1.2156303345059312e-05,2.418580075431414e-05,3.390672130559408e-05,2.3328343727551506e-05,2.8179654557326983e-05,Unknown
0.3312692310000003,1.6381301190174365e-05,1.2081397285075883e-05,2.415544114178289e-05,3.384955989940137e-05,2.3341433712455465e-05,2.8021072979300468e-05,Unknown
0.33178846199999956,1.6336347067616763e-05,1.2000143920023142e-05,2.4030213973599664e-05,3.3742339441305674e-05,2.337646653086421e-05,2.7749665046280512e-05,Unknown
0.33230769199999965,1.6278596822508493e-05,1.189630981707303e-05,2.375854932983028e-05,3.357968316987926e-05,2.3441402831356605e-05,2.753316929761764e-05,Unknown
0.33282692299999983,1.6224974546144913e-05,1.1748826697277635e-05,2.3344194092952365e-05,3.337248939381348e-05,2.350318477442724e-05,2.745017642320389e-05,Unknown
0.333346154,1.6187383785631665e-05,1.15553952267715e-05,2.2876226795009536e-05,3.313298209801789e-05,2.35315736925934e-05,2.745367753896351e-05,Unknown
0.3338653850000002,1.6165284804038065e-05,1.1364203988054558e-05,2.247279040358969e-05,3.286251195230026e-05,2.3522789688690977e-05,2.7529408229880872e-05,Unknown
0.3343846150000003,1.615485914816356e-05,1.1244146065225956e-05,2.21876539373258e-05,3.255652800844878e-05,2.350030790083202e-05,2.763514856507982e-05,Unknown
0.33490384599999956,1.615275035323331e-05,1.1202277218463609e-05,2.198634883624064e-05,3.222097895254314e-05,2.3492194571636043e-05,2.7700032843440877e-05,Unknown
0.33542307699999974,1.6155759831524804e-05,1.1192953898720684e-05,2.1794858291412015e-05,3.188377800188283e-05,2.348921636279061e-05,2.7730890053999613e-05,Unknown
0.3359423079999999,1.615427972035656e-05,1.118753794629592e-05,2.1543191112452175e-05,3.159060721329499e-05,2.347499653008093e-05,2.7762086864631983e-05,Unknown
0.336461538,1.614011688177058e-05,1.1176352703780952e-05,2.121263195958996e-05,3.138723862683549e-05,2.3460430122125948e-05,2.7800426531000347e-05,Unknown
0.3369807690000002,1.612168330084157e-05,1.116409189814762e-05,2.08832307745858e-05,3.129754491054006e-05,2.344286414428121e-05,2.7813572000336056e-05,Unknown
0.33750000000000036,1.6110020149267e-05,1.116731997505814e-05,2.0662693455614264e-05,3.13077214359175e-05,2.3422463514128792e-05,2.7823614689366117e-05,Unknown
0.33801923099999964,1.6103124878105576e-05,1.1186408992222852e-05,2.0569205169814507e-05,3.1371910929904887e-05,2.3426436375406857e-05,2.7997697487990765e-05,Unknown
0.3385384619999998,1.6094591786195235e-05,1.121322478388679e-05,2.0550879406592135e-05,3.144369050278615e-05,2.3444125433614048e-05,2.834760880252215e-05,Unknown
0.3390576919999999,1.608000230937076e-05,1.124525487889202e-05,2.056083350714025e-05,3.1502693500833126e-05,2.3463439052698036e-05,2.8617843926871606e-05,Unknown
0.3395769230000001,1.6059825372825882e-05,1.128008270396352e-05,2.0575407246067044e-05,3.1544877685012296e-05,2.3506899535697094e-05,2.869968949911822e-05,Unknown
0.34009615400000026,1.6041426870837968e-05,1.1316957972843452e-05,2.0585220148748583e-05,3.155071801477571e-05,2.355298245148913e-05,2.870312091504266e-05,Unknown
0.34061538499999955,1.6030704061224253e-05,1.1350943973293594e-05,2.058970877254795e-05,3.1475098540406906e-05,2.3585482520031786e-05,2.870115445384768e-05,Unknown
0.34113461499999964,1.6027968723061112e-05,1.1367007617847218e-05,2.0591609993657443e-05,3.129309426317017e-05,2.363594655570184e-05,2.870902488453246e-05,Unknown
0.3416538459999998,1.6028568025142493e-05,1.1342781996922462e-05,2.0591701662474884e-05,3.105752667801501e-05,2.369702272737216e-05,2.8736156107930064e-05,Unknown
0.342173077,1.602828513131766e-05,1.1249122241730908e-05,2.058887516429678e-05,3.084849518554838e-05,2.3720734438141183e-05,2.8771185161201543e-05,Unknown
0.34269230800000017,1.6035948272269655e-05,1.106024757717777e-05,2.057913867525912e-05,3.064691597462868e-05,2.3651190441535776e-05,2.879516499482419e-05,Unknown
0.34321153800000026,1.6052890624919376e-05,1.0787806716782868e-05,2.055339790067251e-05,3.0347709756494e-05,2.345166156561577e-05,2.879922450549422e-05,Unknown
0.34373076899999955,1.6054531166121035e-05,1.049577884089303e-05,2.050575622771935e-05,2.99057251071438e-05,2.324256290726227e-05,2.878613389903212e-05,Unknown
0.3442499999999997,1.6041065296516855e-05,1.0245405074053452e-05,2.0444053832818628e-05,2.937605782446767e-05,2.3206129994714108e-05,2.876833890649447e-05,Unknown
0.3447692309999999,1.6041280095114028e-05,1.0043236518662356e-05,2.038147205735932e-05,2.8825812051034847e-05,2.318691106437928e-05,2.876635894893565e-05,Unknown
0.3452884620000001,1.6040446216815277e-05,9.86360750087967e-06,2.032212307893638e-05,2.827887430881336e-05,2.297429484630476e-05,2.885443805610643e-05,Unknown
0.34580769200000017,1.60151799868654e-05,9.69251282480308e-06,2.0260713670876592e-05,2.7735199609664973e-05,2.277428565652989e-05,2.918174896451193e-05,Unknown
0.34632692300000034,1.5989807027928865e-05,9.543001583288776e-06,2.0191024644028663e-05,2.720558542227853e-05,2.2742669096637765e-05,2.9791131924636142e-05,Unknown
0.34684615399999963,1.5978618128042155e-05,9.434021013181658e-06,2.011364377776704e-05,2.672061853262774e-05,2.273587128679605e-05,3.049548628481598e-05,Unknown
0.3473653849999998,1.597136420581383e-05,9.365061798449786e-06,2.0035508345653573e-05,2.6306413060101014e-05,2.2686766597015348e-05,3.107842775523971e-05,Unknown
0.3478846149999999,1.596205075033692e-05,9.323076944610008e-06,1.9960992925678075e-05,2.595968223846057e-05,2.2642462470147164e-05,3.145524926722838e-05,Unknown
0.3484038460000001,1.5944241832189628e-05,9.300105851292552e-06,1.988446323093601e-05,2.5656032961391364e-05,2.262171469114581e-05,3.162770931858051e-05,Unknown
0.34892307700000025,1.593653548389715e-05,9.2937264014708e-06,1.9789419246461284e-05,2.53794862921515e-05,2.259413204359968e-05,3.165340401971388e-05,Unknown
0.34944230799999954,1.596601150212414e-05,9.29572291823326e-06,1.965156255359729e-05,2.5136134044358625e-05,2.2513050686384844e-05,3.167317365756303e-05,Unknown
0.34996153799999963,1.6011259349455736e-05,9.296187984675788e-06,1.944872316906674e-05,2.4935970502179472e-05,2.2347926472587e-05,3.187518437137917e-05,Unknown
0.3504807689999998,1.6037622602705484e-05,9.295623899058892e-06,1.917801767187914e-05,2.476996385394933e-05,2.21048134204591e-05,3.240101708994249e-05,Unknown
0.351,1.604033636813918e-05,9.296641400029043e-06,1.8864837608964265e-05,2.4613608064832813e-05,2.183646270468841e-05,3.322068959161563e-05,Unknown
0.35151923100000015,1.6029090477536696e-05,9.300599600116776e-06,1.855866933814567e-05,2.44521334851174e-05,2.161497134430887e-05,3.3999939540234456e-05,Unknown
0.35203846200000033,1.6019747276579558e-05,9.3099834530998e-06,1.8319121003749472e-05,2.4301111835024687e-05,2.1467757278203283e-05,3.434416657508637e-05,Unknown
0.35255769199999953,1.6020689083001027e-05,9.316378909458672e-06,1.8181600632958803e-05,2.419190359745738e-05,2.139499209175973e-05,3.4356199808472e-05,Unknown
0.3530769229999997,1.6026136764579332e-05,9.301471492104544e-06,1.812794349607209e-05,2.41341686968284e-05,2.1508755681401035e-05,3.440130026841178e-05,Unknown
0.3535961539999999,1.602829043897371e-05,9.254419412511636e-06,1.811299616868099e-05,2.411059951461732e-05,2.1873842848046207e-05,3.4450723714585775e-05,Unknown
0.35411538500000006,1.601701597375425e-05,9.184650994906506e-06,1.8108220651986777e-05,2.4102879815704134e-05,2.2253440641966486e-05,3.4453341244052645e-05,Unknown
0.35463461500000015,1.5989880689505706e-05,9.120582108241452e-06,1.810461610464277e-05,2.410248297976827e-05,2.24061045341127e-05,3.458053692218439e-05,Unknown
0.35515384600000033,1.596436001585507e-05,9.0863417180018e-06,1.8099822973968213e-05,2.410151631840198e-05,2.2351809217781664e-05,3.475500057643732e-05,Unknown
0.3556730769999996,1.59545352771597e-05,9.08094769428513e-06,1.8089069254932154e-05,2.408628060261657e-05,2.2200019826110776e-05,3.48011678186742e-05,Unknown
0.3561923079999998,1.5954386781789068e-05,9.087968789377364e-06,1.8056766181735588e-05,2.404053631613749e-05,2.201101963275923e-05,3.478849394605964e-05,Unknown
0.3567115379999999,1.595142806721724e-05,9.093898470559935e-06,1.7986174174962502e-05,2.394385660762084e-05,2.1822084079246344e-05,3.483354363199222e-05,Unknown
0.35723076900000006,1.593456908802724e-05,9.094444022555143e-06,1.7898614377849004e-05,2.377471864737692e-05,2.1676649421499084e-05,3.490780739170577e-05,Unknown
0.35775000000000023,1.590318008105025e-05,9.095958537881276e-06,1.7844473353049978e-05,2.3546536220559943e-05,2.1602301084363547e-05,3.493876940581018e-05,Unknown
0.3582692309999995,1.586960873970036e-05,9.111767374689372e-06,1.7835229211338123e-05,2.3306424334078065e-05,2.158127919180236e-05,3.4926399857362706e-05,Unknown
0.3587884619999997,1.5838087996547355e-05,9.152055139029029e-06,1.7833570467884154e-05,2.3060254350339974e-05,2.158915764670979e-05,3.491008653786541e-05,Unknown
0.3593076919999998,1.579704291398596e-05,9.219964661369984e-06,1.7801673034618445e-05,2.2764694396216784e-05,2.167748769566369e-05,3.491375486335279e-05,Unknown
0.35982692299999997,1.573033359490164e-05,9.317223740824698e-06,1.7733037142116664e-05,2.2398632424854684e-05,2.2126298572454468e-05,3.495671461454264e-05,Unknown
0.36034615400000014,1.5643121890903515e-05,9.441614012793194e-06,1.7648594025739836e-05,2.197342866800521e-05,2.3395109974065945e-05,3.502602008713668e-05,Unknown
0.3608653850000003,1.5572649798902673e-05,9.570852229825569e-06,1.7568204810261248e-05,2.149868426021089e-05,2.5283004079544985e-05,3.5075744422987783e-05,Unknown
0.3613846149999995,1.5541137890352307e-05,9.66893545219643e-06,1.7492941627823408e-05,2.0982124577976292e-05,2.669173111666097e-05,3.50954098701857e-05,Unknown
0.3619038459999997,1.552582000634724e-05,9.719698640240144e-06,1.7416152181701218e-05,2.0447265336546896e-05,2.7080541645106908e-05,3.5085881928784214e-05,Unknown
0.36242307699999987,1.5500252936808214e-05,9.730693199563218e-06,1.7341843859732222e-05,1.993061646165624e-05,2.7080033500870906e-05,3.5059446864301534e-05,Unknown
0.36294230800000005,1.5453863969874615e-05,9.71181423754692e-06,1.7284141445718584e-05,1.945669837347359e-05,2.7284035911243843e-05,3.507411274135663e-05,Unknown
0.36346153800000014,1.5384698165087243e-05,9.672437171429969e-06,1.7242569304310832e-05,1.9024515743915588e-05,2.759134699756709e-05,3.512329963030248e-05,Unknown
0.3639807690000003,1.5321330304945438e-05,9.623530651695288e-06,1.7197199108316197e-05,1.862315508175044e-05,2.7784308840178e-05,3.513664082452243e-05,Unknown
0.3644999999999996,1.5291788823247336e-05,9.57357463530842e-06,1.7125052480529325e-05,1.824931141223902e-05,2.7834124241630508e-05,3.509296004079837e-05,Unknown
0.3650192309999998,1.5282325895887513e-05,9.528725593840628e-06,1.700365716933366e-05,1.790978814224129e-05,2.7801229932185346e-05,3.4975446709246575e-05,Unknown
0.36553846199999995,1.5272947394246914e-05,9.493776602662986e-06,1.6830526272522468e-05,1.761731287656976e-05,2.7732249086868225e-05,3.474919462850242e-05,Unknown
0.36605769200000005,1.5254810221025784e-05,9.47154774138216e-06,1.664044215076312e-05,1.7381197929814762e-05,2.763558087306399e-05,3.447230555556859e-05,Unknown
0.3665769230000002,1.522667738727779e-05,9.461974695673227e-06,1.6472239511861727e-05,1.7199523451323498e-05,2.751677731709335e-05,3.4352095039046226e-05,Unknown
0.3670961539999995,1.5201220005146397e-05,9.461142435601357e-06,1.6335154833303712e-05,1.7064417938607626e-05,2.737669576782825e-05,3.454007296105631e-05,Unknown
0.3676153849999997,1.5188085304942573e-05,9.46473245236809e-06,1.6217725256375312e-05,1.697068639149693e-05,2.7192563617165583e-05,3.491242945047812e-05,Unknown
0.3681346149999998,1.5186014440321912e-05,9.474126970431544e-06,1.6104632205000824e-05,1.6915626686961432e-05,2.6955017269571344e-05,3.525518136576021e-05,Unknown
0.36865384599999995,1.5189488293966282e-05,9.491833248242788e-06,1.5991386223307185e-05,1.6897230258578447e-05,2.672868242007296e-05,3.549607647650945e-05,Unknown
0.3691730770000001,1.5190625042820404e-05,9.51082176632904e-06,1.5892309492594086e-05,1.6912247760647268e-05,2.664790841178042e-05,3.565549527748939e-05,Unknown
0.3696923080000003,1.5183130745478126e-05,9.519400915559282e-06,1.581835069920108e-05,1.694692600538775e-05,2.6805022823396827e-05,3.57815637894442e-05,Unknown
0.3702115379999995,1.5162928584200086e-05,9.513145669942346e-06,1.5761565603922036e-05,1.6978166961912536e-05,2.713097520594312e-05,3.591165588111941e-05,Unknown
0.3707307689999997,1.5132483569368594e-05,9.496039257713285e-06,1.5708245331570274e-05,1.699318200023469e-05,2.742727218269357e-05,3.6002411362346014e-05,Unknown
0.37124999999999986,1.5111807877099468e-05,9.474189552952066e-06,1.5651707612197596e-05,1.699362714322448e-05,2.7552367358362544e-05,3.6024118485612786e-05,Unknown
0.37176923100000003,1.5115752065873604e-05,9.450974428884296e-06,1.5593989731213667e-05,1.6984588190122783e-05,2.7545176179921625e-05,3.600628787057627e-05,Unknown
0.3722884620000002,1.5116859047427743e-05,9.428340224385408e-06,1.553833752390864e-05,1.6976812464163904e-05,2.752375550159701e-05,3.585987668755031e-05,Unknown
0.3728076920000003,1.5081995579779248e-05,9.410741029435826e-06,1.5485667100341755e-05,1.6981487799987434e-05,2.757178542438689e-05,3.550834458606106e-05,Unknown
0.3733269229999996,1.502073536907378e-05,9.404538868765102e-06,1.5442261255450113e-05,1.6996872791372423e-05,2.7674201524406503e-05,3.5142973421233386e-05,Unknown
0.37384615399999976,1.4949317750951983e-05,9.40821329283129e-06,1.5422304643632775e-05,1.7017361510478965e-05,2.767373733808714e-05,3.4982388860018985e-05,Unknown
0.37436538499999994,1.4864977007334295e-05,9.408436271356517e-06,1.543279359966095e-05,1.7045698951622485e-05,2.7529717962435045e-05,3.498239354738993e-05,Unknown
0.37488461500000003,1.4762502690665873e-05,9.3944917073708e-06,1.5464493539395546e-05,1.7089656746009425e-05,2.73962619585442e-05,3.4941020950212475e-05,Unknown
0.3754038460000002,1.4626607915871456e-05,9.36850086272644e-06,1.5505985951251423e-05,1.71551166390672e-05,2.7349902235841243e-05,3.4737147247319755e-05,Unknown
0.3759230770000004,1.4466382354362036e-05,9.341902927148923e-06,1.5558398662137003e-05,1.724069692928098e-05,2.7390299331473582e-05,3.444531709357948e-05,Unknown
0.37644230799999967,1.4339251994449256e-05,9.326802226531747e-06,1.5624386884109325e-05,1.7335876878432773e-05,2.7612582058528047e-05,3.423573822878854e-05,Unknown
0.37696153799999976,1.4265405440330346e-05,9.323927537135313e-06,1.5648696852602457e-05,1.7424896442575012e-05,2.8254653048765717e-05,3.418700123309969e-05,Unknown
0.37748076899999994,1.4208449624772605e-05,9.325787019568264e-06,1.549793743132843e-05,1.749417132246096e-05,2.927823573951033e-05,3.425635807470135e-05,Unknown
0.3780000000000001,1.41456599539888e-05,9.329866063088258e-06,1.5095442914135764e-05,1.753823753399326e-05,3.0215665634955376e-05,3.436426219007384e-05,Unknown
0.3785192310000003,1.4082810711470736e-05,9.337204918591714e-06,1.4535944327315228e-05,1.756055622032972e-05,3.082477644513306e-05,3.44473098624817e-05,Unknown
0.3790384619999996,1.4038894678753947e-05,9.34694203387838e-06,1.3990565718706657e-05,1.7568425189305607e-05,3.126380480782433e-05,3.448447401020739e-05,Unknown
0.37955769199999967,1.4019239509533812e-05,9.35511998434601e-06,1.356013509964382e-05,1.7568810826349322e-05,3.173957727017594e-05,3.449241852023683e-05,Unknown
0.38007692299999984,1.40119067049971e-05,9.351442130138142e-06,1.3256251684701092e-05,1.757110809584528e-05,3.224812960628827e-05,3.4497202032725814e-05,Unknown
0.380596154,1.4016378298722617e-05,9.322804739691685e-06,1.3050373422132216e-05,1.7586525406779824e-05,3.258929171873689e-05,3.451700410213565e-05,Unknown
0.3811153850000002,1.4032918775034344e-05,9.270710628706348e-06,1.290099337363243e-05,1.7620300526766078e-05,3.2732890109307134e-05,3.4542004969897265e-05,Unknown
0.3816346150000003,1.4042721037736718e-05,9.218181443035635e-06,1.277075096365345e-05,1.767393653661532e-05,3.2806354025618985e-05,3.453149832215971e-05,Unknown
