Time,Rectus Femoris,Vastus Medialis,Vastus Lateralis,Bicep Femoris,Tibialis,Gastrocnemius Medialis,Activity
0.00025961500000004634,6.650958263864439e-06,4.286878634684843e-06,3.0350279266661622e-06,1.4582714664951282e-05,9.25299578736186e-06,2.027953790074912e-06,Unknown
0.0007788460000002217,6.636384960245829e-06,4.2758828786697735e-06,3.029687830990482e-06,1.458271776838002e-05,9.279654106619513e-06,2.036414466705598e-06,Unknown
0.0012980770000003972,6.62938384699858e-06,4.265165290821622e-06,3.035855089651669e-06,1.4582424043106664e-05,9.320955452663478e-06,2.0548251276070905e-06,Unknown
0.0018173079999996844,6.630289313450657e-06,4.259581903307752e-06,3.0472044400860685e-06,1.45822173438523e-05,9.355128688136254e-06,2.05910134500586e-06,Unknown
0.002336537999999777,6.627330431956979e-06,4.258341294970156e-06,3.0597982129946926e-06,1.458209306205685e-05,9.373042360996677e-06,2.0584916511647608e-06,Unknown
0.0028557689999999525,6.624534214496244e-06,4.254856642361406e-06,3.074493032344674e-06,1.4580896028179152e-05,9.38108277113638e-06,2.056875579274137e-06,Unknown
0.003375000000000128,6.624658120558312e-06,4.245582369757691e-06,3.0878643718795477e-06,1.4572490285940268e-05,9.3853148629497e-06,2.0434333417822543e-06,Unknown
0.0038942310000003033,6.6247248428899805e-06,4.235047706345187e-06,3.0867943807405835e-06,1.4540554251190894e-05,9.387317627227652e-06,2.0264957654781105e-06,Unknown
0.0044134619999995905,6.621234041917324e-06,4.226406686166961e-06,3.072545193951575e-06,1.4465644596352818e-05,9.38536826463425e-06,2.0132429100813093e-06,Unknown
0.004932691999999683,6.6064979031504135e-06,4.218442340382318e-06,3.058792864561907e-06,1.433766784373843e-05,9.374748756653009e-06,2.0014982568330885e-06,Unknown
0.005451922999999859,6.588405815550486e-06,4.209559580166428e-06,3.0525806456951542e-06,1.4158261177218818e-05,9.352579835489872e-06,1.993141365803416e-06,Unknown
0.005971154000000034,6.580018369892683e-06,4.194117209337256e-06,3.050384746885407e-06,1.3941252804331904e-05,9.332601578646416e-06,1.989591796506896e-06,Unknown
0.0064903850000002095,6.5791515427232215e-06,4.168824359809457e-06,3.043815398514925e-06,1.371637559878726e-05,9.327439556854542e-06,1.9895646414626603e-06,Unknown
0.007009615000000302,6.587381558394697e-06,4.1417018627041485e-06,3.031941715447937e-06,1.351905666734689e-05,9.327518837724236e-06,1.986340815481302e-06,Unknown
0.007528845999999589,6.600482894601436e-06,4.119419752609973e-06,3.0215720159201592e-06,1.3366409665558148e-05,9.325352529939192e-06,1.9720317177271533e-06,Unknown
0.008048076999999765,6.605341836371406e-06,4.098079392469575e-06,3.017066246354465e-06,1.3250299190388215e-05,9.32408472921144e-06,1.953773917422981e-06,Unknown
0.00856730799999994,6.60454939973105e-06,4.0702170003525184e-06,3.0150094940596327e-06,1.3154081119224153e-05,9.324626362484345e-06,1.9461967965977066e-06,Unknown
0.009086538000000033,6.608648633345857e-06,4.036026953921782e-06,3.007634166055884e-06,1.3068673449817387e-05,9.330114667246254e-06,1.947672052891481e-06,Unknown
0.009605769000000208,6.630681387947605e-06,4.005517866153894e-06,2.992482865918657e-06,1.2995263745218096e-05,9.342826138589883e-06,1.948936032498289e-06,Unknown
0.010125000000000384,6.679011737116694e-06,3.98664315153218e-06,2.9766991269843296e-06,1.2939028782330571e-05,9.353372028080409e-06,1.94874203887818e-06,Unknown
0.010644230999999671,6.733192366978476e-06,3.978913965597664e-06,2.9679262259530062e-06,1.290244952693437e-05,9.356018311721192e-06,1.946569972474841e-06,Unknown
0.011163461999999846,6.7642667033631686e-06,3.9754001948920194e-06,2.9652834337323203e-06,1.2882921693022724e-05,9.353756209742235e-06,1.941961166009677e-06,Unknown
0.011682691999999939,6.770650112145312e-06,3.972652319050191e-06,2.9644396337627142e-06,1.2874779825969405e-05,9.345992718957964e-06,1.9359761660723314e-06,Unknown
0.012201923000000114,6.758965248648919e-06,3.9724265779176455e-06,2.963512217667091e-06,1.287252883111556e-05,9.33717203678248e-06,1.9282564364157324e-06,Unknown
0.01272115400000029,6.73704005144891e-06,3.971178409990021e-06,2.963284323333468e-06,1.2872497681515451e-05,9.333692359321828e-06,1.920813814921831e-06,Unknown
0.013240384999999577,6.727657751694512e-06,3.965386488477085e-06,2.9668036317318253e-06,1.2873065438224763e-05,9.332848305118718e-06,1.914194846710112e-06,Unknown
0.01375961499999967,6.734033115261903e-06,3.958515559939395e-06,2.9737292070476958e-06,1.287373234974457e-05,9.337026950907249e-06,1.906671339815462e-06,Unknown
0.014278845999999845,6.74094179444736e-06,3.952867649981329e-06,2.980957407307349e-06,1.2873669880753768e-05,9.334449139776566e-06,1.9018176704309309e-06,Unknown
0.01479807700000002,6.744041389466814e-06,3.9479474593177765e-06,2.98586031570974e-06,1.2870535835057869e-05,9.283927460966604e-06,1.9005073205110376e-06,Unknown
0.015317308000000196,6.739760646163356e-06,3.946026769220281e-06,2.986174180478241e-06,1.2860823605994062e-05,9.20655970159234e-06,1.901232903432152e-06,Unknown
0.01583653800000029,6.735355044924578e-06,3.948165552184545e-06,2.987960905047284e-06,1.2842735974682558e-05,9.17760154799294e-06,1.9061482405686968e-06,Unknown
0.016355768999999576,6.735518717337765e-06,3.949815339832863e-06,2.9972304102598365e-06,1.281949893595881e-05,9.182317459840469e-06,1.9082632965236847e-06,Unknown
0.01687499999999975,6.724646559803917e-06,3.946677248609947e-06,3.0040810506579013e-06,1.2796453276623154e-05,9.168488473942287e-06,1.90404979915693e-06,Unknown
0.017394230999999927,6.711158921234252e-06,3.93602992393679e-06,3.004170705272e-06,1.2772060071984902e-05,9.142426832015407e-06,1.898134143623977e-06,Unknown
0.017913462000000102,6.712577675738178e-06,3.913345064344965e-06,3.006377943153624e-06,1.27324773050024e-05,9.117092322755168e-06,1.8865847706569804e-06,Unknown
0.018432692000000195,6.713969746591853e-06,3.880911291081562e-06,3.0122584028371134e-06,1.2654086053222554e-05,9.088973570815252e-06,1.8732684942225416e-06,Unknown
0.01895192300000037,6.710274959505702e-06,3.850747751331542e-06,3.019590951833591e-06,1.252383067416821e-05,9.060614881915766e-06,1.8658360380811164e-06,Unknown
0.019471153999999657,6.710308371689031e-06,3.828895133688397e-06,3.030307147481449e-06,1.2366093447464315e-05,9.054257899711872e-06,1.8598564583434672e-06,Unknown
0.019990384999999833,6.693531234254597e-06,3.8118558023878177e-06,3.0443753064185486e-06,1.222445999396041e-05,9.04104804783642e-06,1.848854973493161e-06,Unknown
0.020509614999999926,6.64585619780108e-06,3.7977361780442967e-06,3.051291683578904e-06,1.2114511429324832e-05,8.90084094081382e-06,1.8295594500903624e-06,Unknown
0.0210288460000001,6.599769097745742e-06,3.79050191782638e-06,3.048521927342823e-06,1.2017591650211644e-05,8.648928653315238e-06,1.8114931188546088e-06,Unknown
0.021548077000000276,6.588356972733047e-06,3.799092191093406e-06,3.048420083210911e-06,1.190768896045376e-05,8.518356569180705e-06,1.805729468269144e-06,Unknown
0.022067307999999564,6.604549117546236e-06,3.827833875183439e-06,3.0493034178416142e-06,1.1774319803732984e-05,8.522691814535648e-06,1.8058388586776984e-06,Unknown
0.022586537999999656,6.6199556934450805e-06,3.864272889339423e-06,3.0455542229544688e-06,1.1627741874700371e-05,8.35558138580946e-06,1.807889823911102e-06,Unknown
0.02310576899999983,6.623038023624027e-06,3.8893134100267615e-06,3.0415489469561794e-06,1.1488161586680625e-05,7.982556440480385e-06,1.8204884223632184e-06,Unknown
0.023625000000000007,6.615196133396149e-06,3.898198574943447e-06,3.0372242102338047e-06,1.137515167024334e-05,7.744974421806035e-06,1.8475915762455672e-06,Unknown
0.024144231000000183,6.565507570527892e-06,3.898360118238568e-06,3.03350185006192e-06,1.1298955150901655e-05,7.727815432934218e-06,1.8836735105581544e-06,Unknown
0.024663462000000358,6.473485183456369e-06,3.893557157643741e-06,3.031556381870143e-06,1.1256365168256507e-05,7.684022290226368e-06,1.9161954524368598e-06,Unknown
0.025182691999999562,6.42212898999891e-06,3.886863299780867e-06,3.027266076365409e-06,1.1236966685621064e-05,7.570626352834757e-06,1.934711743644087e-06,Unknown
0.025701922999999738,6.43036536511192e-06,3.885432720190916e-06,3.0226716729348046e-06,1.1230412627643856e-05,7.517075795778976e-06,1.942120519165489e-06,Unknown
0.026221153999999913,6.443259795443755e-06,3.888385260280817e-06,3.0224082102491505e-06,1.122864892789465e-05,7.516359879835673e-06,1.945053926914792e-06,Unknown
0.02674038500000009,6.444378394153931e-06,3.890275512681835e-06,3.025672822183134e-06,1.1227383645439167e-05,7.507717135065756e-06,1.9457596142882478e-06,Unknown
0.02725961500000018,6.4222800876013135e-06,3.89080410066434e-06,3.031078079259153e-06,1.1225277476209624e-05,7.5081587919400444e-06,1.945254753201325e-06,Unknown
0.027778846000000357,6.391693203117284e-06,3.889107976889349e-06,3.038524325110499e-06,1.1219923632068744e-05,7.51730718525686e-06,1.9432090941179223e-06,Unknown
0.028298076999999644,6.386400784104404e-06,3.885088035199687e-06,3.045584986844965e-06,1.120686111154682e-05,7.498373899444724e-06,1.9364553314353985e-06,Unknown
0.02881730799999982,6.386510601981397e-06,3.881659845258828e-06,3.04976904727445e-06,1.1179662187598675e-05,7.465562556132848e-06,1.9261882730280923e-06,Unknown
0.029336537999999912,6.375250142212053e-06,3.88021788322915e-06,3.051404338934682e-06,1.1127340904930889e-05,7.451234201222716e-06,1.9207351810144907e-06,Unknown
0.029855769000000087,6.367831681730281e-06,3.880649771238185e-06,3.050819143681087e-06,1.103708419202692e-05,7.451504767298248e-06,1.920729788740468e-06,Unknown
0.030375000000000263,6.365665775366517e-06,3.881295760079084e-06,3.048135791586103e-06,1.0910713909722548e-05,7.465031067325377e-06,1.9219825126536025e-06,Unknown
0.03089423100000044,6.363809697951084e-06,3.880306932538352e-06,3.0441948836727112e-06,1.0775503281380036e-05,7.495272538231076e-06,1.923929487621139e-06,Unknown
0.031413461999999726,6.351308111259121e-06,3.878352000425388e-06,3.039981876700253e-06,1.066155649641714e-05,7.519475902167421e-06,1.923966567497337e-06,Unknown
0.03193269199999982,6.308226458532543e-06,3.87659448936465e-06,3.0361466475159425e-06,1.0577230988803975e-05,7.518780376779507e-06,1.925606709669283e-06,Unknown
0.032451922999999994,6.245238438932991e-06,3.874552978651138e-06,3.0336221284096576e-06,1.0518503503005589e-05,7.506649047235685e-06,1.936081135316492e-06,Unknown
0.03297115400000017,6.195038028584296e-06,3.871279755503667e-06,3.03255650864982e-06,1.0485038275611976e-05,7.501856235110896e-06,1.951155824630459e-06,Unknown
0.033490385000000344,6.165456674517882e-06,3.869588351895053e-06,3.0322236091708588e-06,1.047535491212756e-05,7.503450592998482e-06,1.9633530084180005e-06,Unknown
0.03400961500000044,6.141716444563043e-06,3.87997519076572e-06,3.033597119715053e-06,1.0476141165753633e-05,7.502609808769396e-06,1.968824635532618e-06,Unknown
0.034528845999999724,6.105335027535958e-06,3.906998016573257e-06,3.0374973010729884e-06,1.0468986296033374e-05,7.497720786489572e-06,1.971892319481476e-06,Unknown
0.0350480769999999,6.047973651736503e-06,3.93608464823144e-06,3.0428704981415477e-06,1.0438829259712602e-05,7.490464251783919e-06,1.983351409308434e-06,Unknown
0.035567308000000075,5.996073233903069e-06,3.952879305476766e-06,3.0485583569899423e-06,1.0369492076682016e-05,7.482978695145601e-06,2.002280160521817e-06,Unknown
0.03608653800000017,5.9832208555279545e-06,3.959251897481492e-06,3.053782048057544e-06,1.0245405991096943e-05,7.485366679979357e-06,2.023444942709151e-06,Unknown
0.03660576900000034,5.9944041144651296e-06,3.962399354380169e-06,3.0575782454550967e-06,1.0070749711692846e-05,7.511651392918973e-06,2.0435631952187334e-06,Unknown
0.03712499999999963,5.99642344979082e-06,3.966511407145138e-06,3.058369376463805e-06,9.877313276534946e-06,7.562063659568673e-06,2.052191904671693e-06,Unknown
0.037644230999999806,5.987508738741329e-06,3.972424204401389e-06,3.055015053374444e-06,9.695819081162797e-06,7.6170507611516e-06,2.0478290441854367e-06,Unknown
0.03816346199999998,5.981598870852739e-06,3.976608942670442e-06,3.049519797792856e-06,9.526902634398332e-06,7.652637742530725e-06,2.044727721919641e-06,Unknown
0.038682692000000074,5.98140801945661e-06,3.978614586572658e-06,3.046644238001292e-06,9.349533722791052e-06,7.658977535434735e-06,2.0455241575951376e-06,Unknown
0.03920192300000025,5.980142400535585e-06,3.981484222368382e-06,3.0468220182657225e-06,9.154553781558776e-06,7.641598297067375e-06,2.0445243446368327e-06,Unknown
0.039721154000000425,5.975325591133439e-06,3.984536380504707e-06,3.0463156594235805e-06,8.973358909214008e-06,7.6177814711831e-06,2.0493238718752945e-06,Unknown
0.04024038499999971,5.9700127235231234e-06,3.987268807143648e-06,3.0446124314399484e-06,8.85233453877641e-06,7.612508922578087e-06,2.059889987930591e-06,Unknown
0.040759614999999805,5.966679163408421e-06,3.983811715855978e-06,3.042516806876325e-06,8.794835593544977e-06,7.629194909628245e-06,2.0654291376612463e-06,Unknown
0.04127884599999998,5.970140566730813e-06,3.968320887397595e-06,3.040843492369192e-06,8.769834849762052e-06,7.657354015454273e-06,2.065940661842981e-06,Unknown
0.041798077000000156,5.983093044799674e-06,3.949484965239196e-06,3.040179028570914e-06,8.753454044599736e-06,7.747286103810968e-06,2.0655160799164104e-06,Unknown
0.04231730800000033,5.994530438939732e-06,3.936811942106189e-06,3.036479397611201e-06,8.733395550846037e-06,7.9704442479375e-06,2.0649134902875418e-06,Unknown
0.042836538000000424,5.996377399164026e-06,3.930230603639058e-06,3.0339298138826315e-06,8.700117472779777e-06,8.259673757726524e-06,2.0636544813250305e-06,Unknown
0.04335576899999971,5.997064007786195e-06,3.926039095924441e-06,3.041640925366428e-06,8.641660401472742e-06,8.413153084608631e-06,2.06509100527481e-06,Unknown
0.043874999999999886,5.997876126393501e-06,3.92310668343253e-06,3.04830692801145e-06,8.545630937569143e-06,8.351203791508247e-06,2.0786821067591298e-06,Unknown
0.04439423100000006,5.992117064151481e-06,3.922645327994017e-06,3.043966342145053e-06,8.414026705775291e-06,8.331352489307882e-06,2.1046734063868974e-06,Unknown
0.04491346200000024,5.9818331694146205e-06,3.920077346521397e-06,3.0383710059137747e-06,8.268272925330586e-06,8.565895038198813e-06,2.1277276301940523e-06,Unknown
0.04543269200000033,5.967993182996428e-06,3.909555453190363e-06,3.0419677459403197e-06,8.120189789059424e-06,8.790610315584062e-06,2.1382293148526746e-06,Unknown
0.04595192299999962,5.945008276595398e-06,3.894791269055208e-06,3.0538353574214782e-06,7.956643657099006e-06,8.796798759746783e-06,2.140574109407676e-06,Unknown
0.04647115399999979,5.910427677642116e-06,3.882208060974433e-06,3.0640719333935702e-06,7.770234163339645e-06,8.764052095350013e-06,2.138924514478124e-06,Unknown
0.04699038499999997,5.876565220392533e-06,3.874674452630142e-06,3.068257365805644e-06,7.585887785712552e-06,8.793734911024812e-06,2.135399025028538e-06,Unknown
0.04750961500000006,5.859102546700654e-06,3.87290441896528e-06,3.0667219394834096e-06,7.439933842121977e-06,8.781801948691684e-06,2.135479903256343e-06,Unknown
0.048028846000000236,5.855766942388777e-06,3.872662105108143e-06,3.0593032959316874e-06,7.345955607652462e-06,8.74469623746949e-06,2.140707590901163e-06,Unknown
0.04854807700000041,5.853571117138442e-06,3.868811570878032e-06,3.0490475911578093e-06,7.2924448670765405e-06,8.764971932374846e-06,2.145270797267882e-06,Unknown
0.0490673079999997,5.849898665445212e-06,3.8624554244074245e-06,3.040540182279462e-06,7.259805880858942e-06,8.812253751992108e-06,2.1459596999520467e-06,Unknown
0.04958653799999979,5.848714438571176e-06,3.854719438944701e-06,3.036981704596481e-06,7.2369697205845635e-06,8.843532801296961e-06,2.14623589815118e-06,Unknown
0.05010576899999997,5.851583872904826e-06,3.840596998389792e-06,3.0441275566185253e-06,7.222391811819195e-06,8.872052100010557e-06,2.1476166666486744e-06,Unknown
0.05062500000000014,5.864704081039936e-06,3.811157012908418e-06,3.0557842882646324e-06,7.2141434028063455e-06,8.924874506199102e-06,2.148328070031203e-06,Unknown
0.05114423100000032,5.880425568030406e-06,3.77050559757791e-06,3.058280997211941e-06,7.2091238621945886e-06,9.005692382194136e-06,2.148488583267463e-06,Unknown
0.051663461999999605,5.884378477880345e-06,3.7449034529573617e-06,3.054887406228044e-06,7.206109381051214e-06,9.078671747211982e-06,2.148917614961396e-06,Unknown
0.0521826919999997,5.884130353829912e-06,3.7469926423128496e-06,3.052242747420976e-06,7.205304638684788e-06,9.115251231221333e-06,2.1512923935284705e-06,Unknown
0.05270192299999987,5.8773847948075e-06,3.7596481209776302e-06,3.049865615582771e-06,7.205324378676683e-06,9.125852219235676e-06,2.154917070926803e-06,Unknown
0.05322115400000005,5.855921583101576e-06,3.7657972314478062e-06,3.0470206825443776e-06,7.203789127679853e-06,9.12813962642739e-06,2.1519255842285885e-06,Unknown
0.053740385000000224,5.838622722909577e-06,3.760351272036896e-06,3.047156063449912e-06,7.201057695438973e-06,9.12666342307484e-06,2.139098386410615e-06,Unknown
0.054259615000000316,5.833860430071261e-06,3.748123564140401e-06,3.054382537400796e-06,7.197513963520105e-06,9.113441898306723e-06,2.127694565580636e-06,Unknown
0.054778845999999604,5.828666438117722e-06,3.741880099061513e-06,3.063394783695742e-06,7.190428434722297e-06,9.07517688920142e-06,2.1258335349932333e-06,Unknown
0.05529807699999978,5.8190923701085794e-06,3.744397694123085e-06,3.065850524402217e-06,7.171542463079209e-06,9.017348708270669e-06,2.125223720057196e-06,Unknown
0.055817307999999954,5.802509417669947e-06,3.744534526592189e-06,3.0569176500813336e-06,7.135743144969178e-06,8.959743523337261e-06,2.1176839822200077e-06,Unknown
0.05633653800000005,5.7838631427208455e-06,3.7377460143648553e-06,3.032592728030124e-06,7.092670649502366e-06,8.897795379733914e-06,2.1087341605989167e-06,Unknown
0.05685576900000022,5.778280126232476e-06,3.7298151382980615e-06,2.993902035690434e-06,7.052498499445379e-06,8.790676741084883e-06,2.1060210431224734e-06,Unknown
0.0573750000000004,5.7779073757725e-06,3.724214214610418e-06,2.952798507958159e-06,7.011446496056711e-06,8.617210663720579e-06,2.105737301904183e-06,Unknown
0.057894230999999685,5.772804883301757e-06,3.71903157013666e-06,2.925794187758178e-06,6.957476485133335e-06,8.45235494228277e-06,2.096135902912617e-06,Unknown
0.05841346199999986,5.77102681466807e-06,3.712481180063417e-06,2.915186050731988e-06,6.883767081709622e-06,8.386525956839292e-06,2.0809055946661592e-06,Unknown
0.05893269199999995,5.77007069479028e-06,3.7069722529735377e-06,2.9124048248218727e-06,6.794604596789576e-06,8.385536596467643e-06,2.0807199605697807e-06,Unknown
0.05945192300000013,5.757363807510084e-06,3.703953234223921e-06,2.9137906088454543e-06,6.696059991611727e-06,8.362616182464948e-06,2.0941234953457887e-06,Unknown
0.059971154000000304,5.709038693560107e-06,3.6983171493946e-06,2.9209054116487016e-06,6.586930481689875e-06,8.29702979593507e-06,2.097107400667892e-06,Unknown
0.06049038499999959,5.6147056123936215e-06,3.6870317212668097e-06,2.9308394742825835e-06,6.461743418981738e-06,8.218213773434074e-06,2.08677830646588e-06,Unknown
0.061009614999999684,5.51780743857936e-06,3.673389433651832e-06,2.9311631262907075e-06,6.319302230449786e-06,8.154267880276121e-06,2.0837659078509746e-06,Unknown
0.06152884599999986,5.464856752392975e-06,3.660643450958952e-06,2.917582501268329e-06,6.164725669925179e-06,8.118617355089229e-06,2.095559311864296e-06,Unknown
0.062048077000000035,5.449038703731083e-06,3.655487465670487e-06,2.900626822760599e-06,6.007261870143282e-06,8.113987550949589e-06,2.1096532708950623e-06,Unknown
0.06256730800000021,5.442822902557864e-06,3.663550045900883e-06,2.885980436271813e-06,5.859343884931036e-06,8.128969490656249e-06,2.1174670654814763e-06,Unknown
0.0630865380000003,5.435882720843848e-06,3.674469403423414e-06,2.876957581651718e-06,5.7309034967277966e-06,8.148754884000346e-06,2.119962075182797e-06,Unknown
0.06360576899999959,5.433153639269059e-06,3.6773885419786098e-06,2.874978634575136e-06,5.62231718241825e-06,8.172024006286766e-06,2.1196395488663045e-06,Unknown
0.06412499999999977,5.4474149080989055e-06,3.677152443323017e-06,2.876126433361677e-06,5.525813686309513e-06,8.194308622263923e-06,2.1190320002508657e-06,Unknown
0.06464423099999994,5.466423301423755e-06,3.6776126035168983e-06,2.879657400542243e-06,5.432748359130488e-06,8.203004686926419e-06,2.119044369229746e-06,Unknown
0.06516346200000012,5.466750900419764e-06,3.677357693561961e-06,2.8812363454867158e-06,5.339108098416799e-06,8.201922312999244e-06,2.118962094813856e-06,Unknown
0.06568269200000021,5.456117364753124e-06,3.676642675373141e-06,2.87986606305965e-06,5.2448837540913446e-06,8.199750875065424e-06,2.118800702500324e-06,Unknown
0.06620192300000038,5.433412044266834e-06,3.676605999608992e-06,2.8811901181529407e-06,5.1503535387775895e-06,8.193993188808869e-06,2.118236800687975e-06,Unknown
0.06672115399999967,5.410967618563249e-06,3.678967375450004e-06,2.885715241718802e-06,5.056448648525104e-06,8.182156229449822e-06,2.116829786207046e-06,Unknown
0.06724038499999985,5.434091340018779e-06,3.6678800204684825e-06,2.883514185752955e-06,4.967297260486529e-06,8.168850971372414e-06,2.116762778420836e-06,Unknown
0.06775961499999994,5.485645942396324e-06,3.622268383473682e-06,2.851992611856421e-06,4.886823671830082e-06,8.164514493926146e-06,2.1174563629682645e-06,Unknown
0.06827884600000012,5.510185771301346e-06,3.565858789466033e-06,2.790622400215976e-06,4.8123089700660125e-06,8.166138987378526e-06,2.116766537613163e-06,Unknown
0.06879807700000029,5.508012584147792e-06,3.539589390332476e-06,2.7398880562162264e-06,4.736748108741303e-06,8.164882887842872e-06,2.115356107081114e-06,Unknown
0.06931730799999958,5.503571132326887e-06,3.5470419263721748e-06,2.7215246736705745e-06,4.65961170384543e-06,8.16707384230058e-06,2.112464914939129e-06,Unknown
0.06983653799999967,5.503196524871622e-06,3.57272040914526e-06,2.7178064744852385e-06,4.593815826615124e-06,8.169582754834507e-06,2.10740909506302e-06,Unknown
0.07035576899999985,5.5058870090242445e-06,3.591650471229444e-06,2.7168115815587656e-06,4.5542784149595846e-06,8.170185468824817e-06,2.099548203472708e-06,Unknown
0.07087500000000002,5.506372721649607e-06,3.5808736323110097e-06,2.7161793522234583e-06,4.538291655529784e-06,8.18165828030486e-06,2.0897111329662967e-06,Unknown
0.0713942310000002,5.508537215414285e-06,3.552706472115969e-06,2.7153229583889136e-06,4.530486787900704e-06,8.198268762273716e-06,2.0802100990367904e-06,Unknown
0.07191346200000037,5.524125675280654e-06,3.531565799025973e-06,2.715162459702696e-06,4.521565685099489e-06,8.20810801910768e-06,2.0718465415952142e-06,Unknown
0.07243269199999958,5.549133840387298e-06,3.5221309822882547e-06,2.7077068916663617e-06,4.515519208965883e-06,8.21129494711763e-06,2.0653877709086047e-06,Unknown
0.07295192299999975,5.574262003790692e-06,3.5235090791009937e-06,2.695385800425423e-06,4.522685006807616e-06,8.206578412091031e-06,2.0614462163776846e-06,Unknown
0.07347115399999993,5.59328787134066e-06,3.536099893145094e-06,2.694769775956505e-06,4.540236649995313e-06,8.199285007559586e-06,2.059312600448839e-06,Unknown
0.0739903850000001,5.6031460666916666e-06,3.551845581662018e-06,2.703457307552173e-06,4.553567666884687e-06,8.196739800410813e-06,2.0578057731952043e-06,Unknown
0.0745096150000002,5.610463232721097e-06,3.5609660684155853e-06,2.7078545069826907e-06,4.558671493552036e-06,8.196538260871866e-06,2.056955781083253e-06,Unknown
0.07502884600000037,5.612905996967867e-06,3.563010162327066e-06,2.707443742272022e-06,4.561344514186468e-06,8.196751075003258e-06,2.057481849034784e-06,Unknown
0.07554807699999966,5.606942167805499e-06,3.562666414911729e-06,2.7087055772034715e-06,4.563512218979643e-06,8.196749263095087e-06,2.0581495956581563e-06,Unknown
0.07606730799999983,5.605040363398047e-06,3.563434224903383e-06,2.7104525076519493e-06,4.559845149036925e-06,8.194314512897471e-06,2.0577324772766746e-06,Unknown
0.07658653799999993,5.608059428118177e-06,3.568059927051553e-06,2.7012944415901985e-06,4.5456836951498064e-06,8.191115560185937e-06,2.059457662771621e-06,Unknown
0.0771057690000001,5.604381212355817e-06,3.579357469708955e-06,2.6827348251598205e-06,4.527662557515042e-06,8.190569040851326e-06,2.067452602911201e-06,Unknown
0.07762500000000028,5.597003257103598e-06,3.5978749131087784e-06,2.670858038131026e-06,4.5155865196443485e-06,8.188995670782906e-06,2.0781005072486494e-06,Unknown
0.07814423099999956,5.592501627170145e-06,3.6195383433358393e-06,2.671988998065339e-06,4.511704625860468e-06,8.176712883570588e-06,2.083405632678325e-06,Unknown
0.07866346199999974,5.587224861211462e-06,3.6393878963220406e-06,2.679472902337353e-06,4.513114047669086e-06,8.15523217414539e-06,2.083782673191285e-06,Unknown
0.07918269199999983,5.5794904873314216e-06,3.657334777739894e-06,2.6839703069522693e-06,4.51171629498297e-06,8.139388953181904e-06,2.0837085641694957e-06,Unknown
0.07970192300000001,5.569548016765566e-06,3.677059529384956e-06,2.6844207819682806e-06,4.496470668875092e-06,8.13546490223306e-06,2.0824108335205195e-06,Unknown
0.08022115400000018,5.562580420930734e-06,3.6985640002459376e-06,2.684470159447265e-06,4.4572599158835655e-06,8.135688748188678e-06,2.0828283776595576e-06,Unknown
0.08074038500000036,5.5665799558547964e-06,3.7136229145858895e-06,2.6838024826146884e-06,4.385487379392268e-06,8.135136937580867e-06,2.087040723836124e-06,Unknown
0.08125961499999956,5.572866313343551e-06,3.713776853040296e-06,2.6798774624527744e-06,4.2797933147762745e-06,8.135141347684441e-06,2.0865770898604515e-06,Unknown
0.08177884599999974,5.574476278234498e-06,3.7006980754425695e-06,2.673845092029519e-06,4.1516356606027965e-06,8.132245743073852e-06,2.08117254433112e-06,Unknown
0.08229807699999991,5.573471514349195e-06,3.681345891255765e-06,2.670831408124556e-06,4.022171754120796e-06,8.126056906123465e-06,2.080903401307254e-06,Unknown
0.08281730800000009,5.561910744818574e-06,3.661430827169503e-06,2.670621347382997e-06,3.91295735910148e-06,8.124497213808665e-06,2.0859482340099137e-06,Unknown
0.08333653800000018,5.546613484097194e-06,3.6446212258031935e-06,2.670985507394289e-06,3.833639260005136e-06,8.124781649247075e-06,2.0899870692663964e-06,Unknown
0.08385576900000036,5.54628005897286e-06,3.628877541866182e-06,2.670333080577964e-06,3.776412774037014e-06,8.122288294897804e-06,2.091738910810681e-06,Unknown
0.08437499999999964,5.556132353542525e-06,3.609972419037842e-06,2.664909796590998e-06,3.7227152376262903e-06,8.125476192292584e-06,2.091712643630122e-06,Unknown
0.08489423099999982,5.5638189423969886e-06,3.589341520529456e-06,2.661261088230256e-06,3.656967602482853e-06,8.13165934980218e-06,2.089596957741638e-06,Unknown
0.085413462,5.566618605045112e-06,3.5738615783243924e-06,2.663994305967696e-06,3.5836673885473234e-06,8.132635838142748e-06,2.088560923277253e-06,Unknown
0.08593269200000009,5.566152074806457e-06,3.568081712043063e-06,2.6650408079334606e-06,3.523652799401808e-06,8.131173229500684e-06,2.094189429813049e-06,Unknown
0.08645192300000026,5.566233227522476e-06,3.5686342110856114e-06,2.6634356639081414e-06,3.4859707800579083e-06,8.124614692531517e-06,2.1059010265210707e-06,Unknown
0.08697115400000044,5.564799274154608e-06,3.570166452022754e-06,2.65981401136029e-06,3.461079991950423e-06,8.114776673971245e-06,2.114125131977378e-06,Unknown
0.08749038499999973,5.559494920101578e-06,3.569738855737237e-06,2.6512558508178705e-06,3.4367579462227425e-06,8.111568110484553e-06,2.114367950217506e-06,Unknown
0.08800961499999982,5.557888851033239e-06,3.563855985150672e-06,2.6430505998473783e-06,3.413772201689218e-06,8.114841025233933e-06,2.113990437605591e-06,Unknown
0.088528846,5.5634959968770624e-06,3.5542840982122518e-06,2.642574742538376e-06,3.402184976680704e-06,8.119610520050596e-06,2.115841938410393e-06,Unknown
0.08904807700000017,5.567526587995268e-06,3.549041348135487e-06,2.650418371198864e-06,3.4000563583683646e-06,8.118414329573803e-06,2.116731025931964e-06,Unknown
0.08956730800000035,5.565000720151847e-06,3.550687378169287e-06,2.663496871106771e-06,3.3997014269434754e-06,8.104915288881404e-06,2.11470929662043e-06,Unknown
0.09008653800000044,5.561602692293126e-06,3.557068622138693e-06,2.6800994229157284e-06,3.3996050983547964e-06,8.091409514567553e-06,2.106227642145721e-06,Unknown
0.09060576899999973,5.562582302917296e-06,3.5668057776683268e-06,2.7023851854958367e-06,3.398606126975193e-06,8.089813480605755e-06,2.0939754512746616e-06,Unknown
0.0911249999999999,5.5743352339884505e-06,3.577685213965969e-06,2.7337225294694808e-06,3.3934062958117037e-06,8.091305660166426e-06,2.0853754425896383e-06,Unknown
0.09164423100000008,5.632526542679841e-06,3.587726153104318e-06,2.76952424162096e-06,3.3805578671678832e-06,8.089937438669273e-06,2.0819985335894085e-06,Unknown
0.09216346200000025,5.833559814235742e-06,3.597215812146685e-06,2.797107396891916e-06,3.3637478339897244e-06,8.088364236786929e-06,2.081573901718849e-06,Unknown
0.09268269200000034,6.222508875304758e-06,3.607530552775541e-06,2.8123666581660463e-06,3.3528074914600334e-06,8.084723016090624e-06,2.081500968049975e-06,Unknown
0.09320192299999963,6.662112691526476e-06,3.617412148282726e-06,2.820028159319493e-06,3.3496834009599533e-06,8.080803235485114e-06,2.081264542724904e-06,Unknown
0.0937211539999998,6.996451869906387e-06,3.622149068326331e-06,2.82525403455826e-06,3.349771494946684e-06,8.080604218356211e-06,2.0826512442639157e-06,Unknown
0.09424038499999998,7.192817560744957e-06,3.6197067800420313e-06,2.829205440140225e-06,3.3516453163349938e-06,8.080130932217648e-06,2.086074170536316e-06,Unknown
0.09475961500000007,7.284678724358764e-06,3.613605716602951e-06,2.829091922576832e-06,3.3502740854343007e-06,8.07883068948574e-06,2.0889675974455058e-06,Unknown
0.09527884600000025,7.328804494192084e-06,3.6066403009722265e-06,2.8347071962504266e-06,3.3443233166879337e-06,8.078620657155466e-06,2.088839581986619e-06,Unknown
0.09579807700000043,7.356631187053597e-06,3.5970896667011542e-06,2.8454944481020737e-06,3.344026863301548e-06,8.074959262678204e-06,2.087024626976032e-06,Unknown
0.09631730799999971,7.360498101373865e-06,3.582952307683349e-06,2.8437294423688204e-06,3.351202485903594e-06,8.069795504696557e-06,2.0862399069371955e-06,Unknown
0.0968365379999998,7.373135295444083e-06,3.565867789394542e-06,2.8358176651222265e-06,3.361201475102181e-06,8.067650445946181e-06,2.0862516268307325e-06,Unknown
0.09735576899999998,7.451261516212043e-06,3.549033103772279e-06,2.8359610885079613e-06,3.378147509168892e-06,8.066822303826052e-06,2.086018421602576e-06,Unknown
0.09787500000000016,7.58984422007049e-06,3.5324198279660443e-06,2.839329199429689e-06,3.40814658800228e-06,8.064930968881025e-06,2.0851325931281905e-06,Unknown
0.09839423100000033,7.745874168471645e-06,3.511455499840461e-06,2.8405747769977154e-06,3.4555774413085718e-06,8.058956558819878e-06,2.0822309693891123e-06,Unknown
0.09891346199999962,7.8964237056893e-06,3.480589095516955e-06,2.83485029940603e-06,3.520060204433273e-06,8.053622836223445e-06,2.0765637074104585e-06,Unknown
0.09943269199999971,8.034532968200456e-06,3.4445453680614065e-06,2.8152181469414523e-06,3.591929700647416e-06,8.052696344220523e-06,2.0704728086747447e-06,Unknown
0.09995192299999989,8.153183955654493e-06,3.4243736140970128e-06,2.7862371348134755e-06,3.664896374484233e-06,8.052698965505678e-06,2.0668838583843587e-06,Unknown
0.10047115400000006,8.252779567820633e-06,3.426773508115548e-06,2.7631436233986677e-06,3.744928409680733e-06,8.053624476621576e-06,2.0652562601704807e-06,Unknown
0.10099038500000024,8.34674036634014e-06,3.4241012254736207e-06,2.7550862534050267e-06,3.841265228978875e-06,8.054294183877221e-06,2.064135864791003e-06,Unknown
0.10150961500000033,8.438467029369289e-06,3.4004617559973484e-06,2.755234203430817e-06,3.9582942068855385e-06,8.054928630835199e-06,2.063415989395005e-06,Unknown
0.10202884599999962,8.504090362470567e-06,3.373496875451054e-06,2.746714674380248e-06,4.093671474757701e-06,8.05770421347224e-06,2.063966953149282e-06,Unknown
0.1025480769999998,8.530951890416179e-06,3.356479633561068e-06,2.71739787041098e-06,4.242534772164756e-06,8.058653275171463e-06,2.064997579496901e-06,Unknown
0.10306730799999997,8.535786570995242e-06,3.344078927166003e-06,2.691494928406421e-06,4.4063401372630426e-06,8.053883207474996e-06,2.064590325299109e-06,Unknown
0.10358653800000006,8.514558698886287e-06,3.32709652096303e-06,2.701953523976344e-06,4.592358396133527e-06,8.060955464116499e-06,2.0610886246005323e-06,Unknown
0.10410576900000024,8.45298551940469e-06,3.305715354927647e-06,2.728421539030592e-06,4.79718488548574e-06,8.092265181221801e-06,2.0575624870205782e-06,Unknown
0.10462500000000041,8.37173464938472e-06,3.2891017990176533e-06,2.7444672210339022e-06,5.001073478380103e-06,8.11972121074042e-06,2.0580103245569587e-06,Unknown
0.1051442309999997,8.299999865505434e-06,3.2793087300836515e-06,2.754095632090798e-06,5.193699854348373e-06,8.125688014785505e-06,2.051390667252295e-06,Unknown
0.10566346199999987,8.251052946707461e-06,3.2700307063164856e-06,2.7619182723652584e-06,5.390190206794057e-06,8.125604639620498e-06,2.036696504521668e-06,Unknown
0.10618269199999997,8.228623295760511e-06,3.256385538145556e-06,2.771593112162892e-06,5.611162684472575e-06,8.124718274523391e-06,2.0384228882798985e-06,Unknown
0.10670192300000014,8.223759280268332e-06,3.239835717174045e-06,2.7798650823726886e-06,5.853787404229618e-06,8.122996579538529e-06,2.068567941003093e-06,Unknown
0.10722115400000032,8.223365637633949e-06,3.2233410272082727e-06,2.7779583100407767e-06,6.0931157623782345e-06,8.12576123758178e-06,2.1084643134175494e-06,Unknown
0.1077403849999996,8.223301358060443e-06,3.2066535710914787e-06,2.766488784073925e-06,6.317440211697458e-06,8.125273464837713e-06,2.132366398275086e-06,Unknown
0.1082596149999997,8.223259615280975e-06,3.190120934432107e-06,2.7535770022827057e-06,6.546404144047121e-06,8.111069575570126e-06,2.1365505455451518e-06,Unknown
0.10877884599999987,8.222615996196966e-06,3.17504654702526e-06,2.74732644543169e-06,6.810288021634955e-06,8.085720091998773e-06,2.133111407507132e-06,Unknown
0.10929807700000005,8.2128482987988e-06,3.1684056426232256e-06,2.7454699044307462e-06,7.1111926964525404e-06,8.064568961067197e-06,2.128584562657414e-06,Unknown
0.10981730800000022,8.181500966200145e-06,3.180379337912526e-06,2.743269394030054e-06,7.400708818318298e-06,8.059160036842138e-06,2.128157427986004e-06,Unknown
0.11033653800000032,8.132272415553519e-06,3.2059043955336448e-06,2.737182417408401e-06,7.613188023442297e-06,8.060464814107908e-06,2.1302263864290613e-06,Unknown
0.1108557689999996,8.082412190814641e-06,3.2199742050122426e-06,2.7250916145233675e-06,7.721917240470304e-06,8.058947896931221e-06,2.125019549972689e-06,Unknown
0.11137499999999978,8.045945518871997e-06,3.214340346315477e-06,2.715535325138823e-06,7.750940762681329e-06,8.057201158511429e-06,2.118166578944286e-06,Unknown
0.11189423099999996,8.026365042263589e-06,3.211775742266795e-06,2.715977323260432e-06,7.747653599237421e-06,8.055675657149118e-06,2.1180975818273027e-06,Unknown
0.11241346200000013,8.01927437420674e-06,3.228469420231528e-06,2.722535923627794e-06,7.759453113090454e-06,8.05826736913731e-06,2.11927821017322e-06,Unknown
0.11293269200000022,8.020624534107395e-06,3.269623366662318e-06,2.7259432232481364e-06,7.824622163239175e-06,8.059151258919732e-06,2.1192864743716955e-06,Unknown
0.1134519230000004,8.02866895381073e-06,3.335052648389052e-06,2.719661167563406e-06,7.95985953252749e-06,8.034811470005463e-06,2.120634277640274e-06,Unknown
0.11397115399999969,8.037184729660653e-06,3.4098307543446237e-06,2.706225761969592e-06,8.14944162559208e-06,7.996393026507816e-06,2.1254514104624448e-06,Unknown
0.11449038499999986,8.03852458555359e-06,3.4752711946567257e-06,2.693987620970402e-06,8.36832961569272e-06,7.977874733463772e-06,2.1311313247445017e-06,Unknown
0.11500961499999995,8.036719202844959e-06,3.5193705875529823e-06,2.686157945173811e-06,8.614645604148722e-06,7.976456844293435e-06,2.132280141569956e-06,Unknown
0.11552884600000013,8.036950196957945e-06,3.5504648944957223e-06,2.6785518401039973e-06,8.90492423947046e-06,7.976728605409812e-06,2.131096924384328e-06,Unknown
0.1160480770000003,8.02998493837881e-06,3.6024780800070582e-06,2.6698062029652306e-06,9.245758605958316e-06,7.974798559982128e-06,2.1306049385258875e-06,Unknown
0.11656730799999959,8.00626106633135e-06,3.685488766851365e-06,2.6638199998144857e-06,9.62163524306806e-06,7.96526520727974e-06,2.1304272017045818e-06,Unknown
0.11708653799999968,7.96329233577133e-06,3.7589998802620833e-06,2.6613719978860333e-06,1.001485577027136e-05,7.955922061588118e-06,2.1307126068827697e-06,Unknown
0.11760576899999986,7.913601990924712e-06,3.788526416345632e-06,2.658194970200785e-06,1.042494263086288e-05,7.952080947868593e-06,2.1324606717047544e-06,Unknown
0.11812500000000004,7.880096482186553e-06,3.781940671295007e-06,2.6481632465246994e-06,1.0860571670140046e-05,7.933367328208014e-06,2.1356151322444005e-06,Unknown
0.11864423100000021,7.858551209172371e-06,3.7663731246230393e-06,2.6410054568705064e-06,1.1318624699643273e-05,7.899331283181499e-06,2.1400108463772926e-06,Unknown
0.11916346200000039,7.832460389659485e-06,3.7609850502629104e-06,2.652248333284612e-06,1.1776307353788046e-05,7.872255492361044e-06,2.147871102772147e-06,Unknown
0.11968269199999959,7.801523355459697e-06,3.7659253853542778e-06,2.6721222946831875e-06,1.2203096185871244e-05,7.856676093365194e-06,2.168806917895904e-06,Unknown
0.12020192299999977,7.771119740151714e-06,3.7686535012021383e-06,2.684938048585604e-06,1.2574684571037232e-05,7.854620100756757e-06,2.225156810706174e-06,Unknown
0.12072115399999994,7.755750691285304e-06,3.769220306661529e-06,2.693873445240691e-06,1.2878661923561857e-05,7.863376515446853e-06,2.318200965105364e-06,Unknown
0.12124038500000012,7.758334378140213e-06,3.780448700822416e-06,2.707531822167439e-06,1.3113024933411252e-05,7.867128205389089e-06,2.4115927412498647e-06,Unknown
0.12175961500000021,7.757079479211038e-06,3.8070979140257856e-06,2.720363661883657e-06,1.3281102991733525e-05,7.864311656951324e-06,2.4813837403500423e-06,Unknown
0.12227884600000039,7.74654293623739e-06,3.8465692947041465e-06,2.72722921818466e-06,1.339061195315322e-05,7.863763063798377e-06,2.5204391332453368e-06,Unknown
0.12279807699999967,7.739650027547686e-06,3.897664374136014e-06,2.735174621722661e-06,1.3455377043805476e-05,7.862179015198907e-06,2.518504373101353e-06,Unknown
0.12331730799999985,7.737761033760433e-06,3.960657886717573e-06,2.7475359877783146e-06,1.349244246677651e-05,7.854272915373006e-06,2.4993972806256707e-06,Unknown
0.12383653799999994,7.739887715572817e-06,4.029198321607394e-06,2.761818248180872e-06,1.35159800826895e-05,7.848856949842537e-06,2.499439214022334e-06,Unknown
0.12435576900000012,7.747697236673222e-06,4.096052832910889e-06,2.770887759968911e-06,1.3533913848624614e-05,7.85423815347909e-06,2.499716842162238e-06,Unknown
0.12487500000000029,7.751725911321648e-06,4.16190624337917e-06,2.7703063692765093e-06,1.3548103553887306e-05,7.869334288986368e-06,2.4972642383958065e-06,Unknown
0.12539423099999958,7.749110007965646e-06,4.228849783038761e-06,2.766463474493278e-06,1.3557216533978474e-05,7.886453031706831e-06,2.524712191629795e-06,Unknown
0.12591346199999975,7.750740302895536e-06,4.293803172312913e-06,2.76400037716326e-06,1.3560963006660284e-05,7.878906999820654e-06,2.529285548291277e-06,Unknown
0.12643269199999985,7.755543046290186e-06,4.3498792934792265e-06,2.758925030872519e-06,1.3561469218575862e-05,7.834871256574886e-06,2.5360887779545045e-06,Unknown
0.12695192300000002,7.756425862559233e-06,4.392979007205441e-06,2.7458324672679823e-06,1.3561580183755362e-05,7.788148518084889e-06,2.827209191945669e-06,Unknown
0.1274711540000002,7.755798320797851e-06,4.424653862018927e-06,2.730591576699612e-06,1.3563381467444913e-05,7.767275783233092e-06,3.4170048367130982e-06,Unknown
0.12799038500000037,7.757401608083009e-06,4.450509161699372e-06,2.733945942003876e-06,1.356725156958625e-05,7.775826155200306e-06,3.89059567504715e-06,Unknown
0.12850961499999958,7.760283279767411e-06,4.473923546491417e-06,2.7615122536202776e-06,1.3571908097358414e-05,7.813364165542639e-06,4.03282259613893e-06,Unknown
0.12902884599999975,7.761199255370256e-06,4.4947249958398514e-06,2.7857926064606717e-06,1.3576838479517958e-05,7.865107009721363e-06,4.0303085301553895e-06,Unknown
0.12954807699999993,7.762189266944627e-06,4.515638781186353e-06,2.791486205711615e-06,1.3584616027927777e-05,7.90557884447829e-06,4.11790916776451e-06,Unknown
0.1300673080000001,7.77408817860399e-06,4.538961107666096e-06,2.791649891708446e-06,1.3600462253875126e-05,7.924486998597882e-06,4.216909135941373e-06,Unknown
0.1305865380000002,7.793672021990074e-06,4.5602926105159535e-06,2.7895463840457244e-06,1.3628069907045692e-05,7.931161747450417e-06,4.218654767530378e-06,Unknown
0.13110576900000037,7.802295884601518e-06,4.575115160700447e-06,2.783852917072119e-06,1.3665489020175152e-05,7.935112338923513e-06,4.3473906137817816e-06,Unknown
0.13162499999999966,7.80156953218423e-06,4.583192980002168e-06,2.7854009317765807e-06,1.370886522298758e-05,7.938766998898568e-06,4.693201406145461e-06,Unknown
0.13214423099999983,7.795064755346997e-06,4.585885745946636e-06,2.7937112913176827e-06,1.3758670375239093e-05,7.942133291102869e-06,4.909858980213987e-06,Unknown
0.132663462,7.78040953804425e-06,4.585449080167797e-06,2.796702837596188e-06,1.3819393758738588e-05,7.94366432051096e-06,4.922292752349988e-06,Unknown
0.1331826920000001,7.778302857991512e-06,4.584536368370297e-06,2.7917248245521542e-06,1.3895287776541985e-05,7.9436772920968e-06,4.95152572474668e-06,Unknown
0.13370192300000028,7.793975765024122e-06,4.586022793708885e-06,2.7833710629468187e-06,1.3987047285303818e-05,7.947546165667167e-06,4.978346979243321e-06,Unknown
0.13422115399999957,7.801693719859733e-06,4.592105142397658e-06,2.7766899857343687e-06,1.409105015477107e-05,7.959793529154437e-06,4.980190894349155e-06,Unknown
0.13474038499999974,7.783161681207664e-06,4.601838541010825e-06,2.774119589153906e-06,1.42010672495982e-05,7.979954643207175e-06,5.021571868185834e-06,Unknown
0.13525961499999983,7.739060108146886e-06,4.60935923547258e-06,2.775801990926388e-06,1.4311321926765336e-05,8.015354288060434e-06,5.05246423060776e-06,Unknown
0.135778846,7.690722274202896e-06,4.609852897923447e-06,2.787567752235932e-06,1.4419772827119549e-05,8.075663372301533e-06,5.061107905133447e-06,Unknown
0.13629807700000018,7.663430167686271e-06,4.607380646532611e-06,2.813162805313236e-06,1.4528215465894408e-05,8.163667693805186e-06,5.071110860726185e-06,Unknown
0.13681730800000036,7.658789520948373e-06,4.607161742685067e-06,2.842171273547871e-06,1.4636197118087297e-05,8.273934396231308e-06,5.076319162236394e-06,Unknown
0.13733653799999956,7.663659370187229e-06,4.60780586917709e-06,2.8627812905536936e-06,1.4736114317237352e-05,8.371526289150769e-06,5.133341819721172e-06,Unknown
0.13785576899999974,7.667415209992185e-06,4.60832958140279e-06,2.8721221149263423e-06,1.4819332086068171e-05,8.423314379632015e-06,5.815438627458216e-06,Unknown
0.13837499999999991,7.66439148858011e-06,4.612955609887654e-06,2.871143912863937e-06,1.4885110313607564e-05,8.446522344637345e-06,7.360445180947338e-06,Unknown
0.1388942310000001,7.656991002662857e-06,4.631064637911562e-06,2.8633967798215803e-06,1.4939162211057158e-05,8.475648109968978e-06,8.714675402715258e-06,Unknown
0.13941346200000027,7.651155590081289e-06,4.668949213290552e-06,2.856283938134636e-06,1.4986801131792444e-05,8.531023371512789e-06,9.178209283511556e-06,Unknown
0.13993269200000036,7.648164759791322e-06,4.712118935555505e-06,2.8556936607571317e-06,1.5030094231086162e-05,8.604602695788754e-06,9.18204260684637e-06,Unknown
0.14045192299999965,7.646661565254204e-06,4.736987942312104e-06,2.8613397304150376e-06,1.5069754082161473e-05,8.655159392006324e-06,9.320373549313791e-06,Unknown
0.14097115399999982,7.646246631220215e-06,4.741591183393305e-06,2.864477973144529e-06,1.5107507056839314e-05,8.669950802910667e-06,9.50660199489955e-06,Unknown
0.141490385,7.650949549319617e-06,4.740224296651893e-06,2.8589511487197784e-06,1.5144975468352108e-05,8.674694858213393e-06,9.545787162414607e-06,Unknown
0.1420096150000001,7.66844588118609e-06,4.741198835650899e-06,2.854351424497636e-06,1.5181052553433148e-05,8.677961769870869e-06,9.553647288829634e-06,Unknown
0.14252884600000026,7.687181796896272e-06,4.745692853862866e-06,2.854404680430379e-06,1.5213177704379232e-05,8.676555343209525e-06,9.60394486960954e-06,Unknown
0.14304807700000044,7.688654776522613e-06,4.753739717315462e-06,2.8526485051550643e-06,1.5240796880681632e-05,8.675141240448913e-06,9.629088912958678e-06,Unknown
0.14356730799999973,7.687035196012877e-06,4.763699539258739e-06,2.849159662351109e-06,1.5264609992533537e-05,8.675030437585148e-06,9.62911106184024e-06,Unknown
0.14408653799999982,7.692607400879534e-06,4.7724995019880455e-06,2.843201205294785e-06,1.5283654940745174e-05,8.674898695793851e-06,9.647640929480964e-06,Unknown
0.144605769,7.693723568375628e-06,4.779521488123618e-06,2.832066966296515e-06,1.529634953022322e-05,8.676805356819754e-06,9.684205539315378e-06,Unknown
0.14512500000000017,7.6959522515841e-06,4.7859217949413e-06,2.819600282927732e-06,1.5302889401854804e-05,8.702797925244245e-06,9.730214484010324e-06,Unknown
0.14564423100000035,7.702370708096568e-06,4.791369115672165e-06,2.824072852059647e-06,1.5304880645101436e-05,8.79882654146442e-06,9.794216995899026e-06,Unknown
0.14616346199999963,7.70196182186849e-06,4.794229445978827e-06,2.848060602687437e-06,1.5304946533273924e-05,8.973093472108445e-06,9.880216367564792e-06,Unknown
0.14668269199999973,7.69638853993941e-06,4.7897683254189455e-06,2.8667065319514027e-06,1.530493127636676e-05,9.166538337818784e-06,9.96480210366597e-06,Unknown
0.1472019229999999,7.68642555674402e-06,4.773935808853362e-06,2.875427554934224e-06,1.5304316046173137e-05,9.332977561664096e-06,1.001990060008288e-05,Unknown
0.14772115400000008,7.673213802179365e-06,4.754736034532733e-06,2.882106536316743e-06,1.530520321558264e-05,9.488406275958843e-06,1.0045004202675496e-05,Unknown
0.14824038500000025,7.67235179134814e-06,4.746891459311666e-06,2.884873162042385e-06,1.531257615230915e-05,9.677133698222882e-06,1.0054665416000682e-05,Unknown
0.14875961500000034,7.676433380464081e-06,4.753347490058966e-06,2.8859631269556288e-06,1.532712014487369e-05,9.924905931738952e-06,1.0059101115414808e-05,Unknown
0.14927884599999963,7.66931281890981e-06,4.7658555446015e-06,2.8866301074245194e-06,1.5345219564702082e-05,1.0178761357942994e-05,1.0063898751334892e-05,Unknown
0.1497980769999998,7.669141255954288e-06,4.77845654681474e-06,2.889847458667744e-06,1.536362737662785e-05,1.034731219862658e-05,1.0071949199340158e-05,Unknown
0.15031730799999998,7.673915229457472e-06,4.788557356171443e-06,2.898306298004082e-06,1.5380927656333756e-05,1.0427356215551166e-05,1.008274487720168e-05,Unknown
0.15083653800000008,7.662816319548495e-06,4.79393291045848e-06,2.901179858361015e-06,1.5397773675222295e-05,1.0480722649354315e-05,1.0094340985133104e-05,Unknown
0.15135576900000025,7.654454069056016e-06,4.795086833155378e-06,2.8998287407382763e-06,1.5415949814746284e-05,1.0564042551871134e-05,1.010596302041694e-05,Unknown
0.15187500000000043,7.657871610431433e-06,4.794399946502366e-06,2.899777852511608e-06,1.543453591282889e-05,1.0703530846653877e-05,1.0117343858340749e-05,Unknown
0.1523942309999997,7.659548642652025e-06,4.7939103517719646e-06,2.895128004143533e-06,1.5450330555197658e-05,1.0833795105333578e-05,1.0126948000807737e-05,Unknown
0.1529134619999999,7.658863222681739e-06,4.795230321948402e-06,2.8875643264918878e-06,1.5463042103131803e-05,1.0881022747291668e-05,1.0133251940213774e-05,Unknown
0.15343269199999998,7.657248330297316e-06,4.79813237736116e-06,2.8810247714049484e-06,1.5474914935935318e-05,1.0878537554516814e-05,1.0137151380040804e-05,Unknown
0.15395192300000016,7.66351035417843e-06,4.801633829792638e-06,2.8767246883904683e-06,1.5486852898769453e-05,1.0917719619528972e-05,1.0140711577031142e-05,Unknown
0.15447115400000033,7.683992554029051e-06,4.8059628744472885e-06,2.8750004382924183e-06,1.5497701073744147e-05,1.1126334356304413e-05,1.014422933799946e-05,Unknown
0.15499038499999962,7.710812442128139e-06,4.8130647853837205e-06,2.875469744585195e-06,1.550768635027754e-05,1.1676987137347415e-05,1.0145048417545628e-05,Unknown
0.1555096149999997,7.73701903060066e-06,4.826728054224801e-06,2.8778063249639064e-06,1.552124731934578e-05,1.2588196351087274e-05,1.0146650519263256e-05,Unknown
0.1560288459999999,7.756867748416149e-06,4.844717766156411e-06,2.880388233369649e-06,1.554494363329124e-05,1.3535766090913448e-05,1.0165034219536798e-05,Unknown
0.15654807700000006,7.765708649672096e-06,4.858885956042094e-06,2.8812910540856518e-06,1.5578324170443448e-05,1.4169596227829414e-05,1.0204651055066508e-05,Unknown
0.15706730800000024,7.76689254244809e-06,4.866725289963722e-06,2.881007658745096e-06,1.5610293112898368e-05,1.447338242861329e-05,1.024421917020194e-05,Unknown
0.15758653800000033,7.766870861439241e-06,4.871266010299775e-06,2.880163006645535e-06,1.563211313851823e-05,1.460792683362346e-05,1.0268518924047008e-05,Unknown
0.15810576899999962,7.76708819637099e-06,4.874636642135974e-06,2.8798517720083773e-06,1.5644599747342407e-05,1.4656947154942642e-05,1.0287841877307288e-05,Unknown
0.1586249999999998,7.769420653719485e-06,4.875153456771401e-06,2.882206932456348e-06,1.5651643009635378e-05,1.465662616777196e-05,1.0328233994403062e-05,Unknown
0.15914423099999997,7.771581891347399e-06,4.866933743086752e-06,2.8880547025228605e-06,1.5655458852465313e-05,1.4838056960615208e-05,1.0421505305587372e-05,Unknown
0.15966346200000014,7.771002042598623e-06,4.848136975586702e-06,2.895706123723185e-06,1.5657077095393244e-05,1.542773272869525e-05,1.0549257255444705e-05,Unknown
0.16018269200000024,7.784499599889704e-06,4.829334292663914e-06,2.8997241757246647e-06,1.5657808420891017e-05,1.5980893090493245e-05,1.0630769549589112e-05,Unknown
0.1607019230000004,7.811149704811527e-06,4.822465933450704e-06,2.896273109247004e-06,1.5660220741139613e-05,1.6061637776187057e-05,1.0647194886457178e-05,Unknown
0.1612211539999997,7.821171092532066e-06,4.828055025773722e-06,2.8900838028922336e-06,1.5667073617812832e-05,1.6176015631493006e-05,1.0646239443754352e-05,Unknown
0.16174038499999988,7.815154556415518e-06,4.840888362989297e-06,2.8901760141276253e-06,1.5676309377092724e-05,1.6639150327398703e-05,1.0663914325825189e-05,Unknown
0.16225961499999997,7.811829609512638e-06,4.856361078744724e-06,2.8990229651357284e-06,1.5682335729941362e-05,1.6876291657979776e-05,1.0778887110649065e-05,Unknown
0.16277884600000014,7.812126233637276e-06,4.870386444454342e-06,2.9095050003709943e-06,1.568411353186757e-05,1.6852533827388666e-05,1.096733451761152e-05,Unknown
0.16329807700000032,7.817018887964453e-06,4.883612755389441e-06,2.9154951228697387e-06,1.5684245696159067e-05,1.7124161279989415e-05,1.104052399346931e-05,Unknown
0.1638173079999996,7.824011674372549e-06,4.901108604949554e-06,2.919091833316369e-06,1.5684573365606e-05,1.7554507334019344e-05,1.1047206053570666e-05,Unknown
0.1643365379999997,7.825575990737725e-06,4.922471823160364e-06,2.9249951940195627e-06,1.5685972504739302e-05,1.7718819660181232e-05,1.12236411545314e-05,Unknown
0.16485576899999987,7.82612506073044e-06,4.939702353427351e-06,2.935127085510424e-06,1.568787192570578e-05,1.7719960911796497e-05,1.149615025740456e-05,Unknown
0.16537500000000005,7.829522312102808e-06,4.947168912469904e-06,2.9502932009314303e-06,1.5689313993265557e-05,1.775566907801984e-05,1.1645855559862835e-05,Unknown
0.16589423100000023,7.83186082094287e-06,4.948462569318348e-06,2.9704608062534357e-06,1.5690284827754685e-05,1.7783977817865213e-05,1.1671791820448718e-05,Unknown
0.1664134620000004,7.828465802499791e-06,4.950176966797084e-06,2.989786650869608e-06,1.5691197246612923e-05,1.7763926434857187e-05,1.1671467678815936e-05,Unknown
0.1669326919999996,7.817801701571997e-06,4.955781522160238e-06,3.002266918222524e-06,1.569197040203502e-05,1.7706257484258662e-05,1.1682694647047812e-05,Unknown
0.16745192299999978,7.808255008478218e-06,4.963096160241426e-06,3.011463194549104e-06,1.569208953392593e-05,1.7621254662107025e-05,1.1704686559250976e-05,Unknown
0.16797115399999996,7.806499497151946e-06,4.966093921883959e-06,3.017266053850294e-06,1.5692042181248784e-05,1.7555122738589356e-05,1.172826673860077e-05,Unknown
0.16849038500000013,7.807091800032763e-06,4.966046293269849e-06,3.0147434986716147e-06,1.5692693185079993e-05,1.7553420707302535e-05,1.173868256030193e-05,Unknown
0.16900961500000022,7.805491891967563e-06,4.966385563540657e-06,3.011254786035416e-06,1.5693201738347616e-05,1.758883088423863e-05,1.1736244104196672e-05,Unknown
0.1695288460000004,7.803764673682912e-06,4.964970817165209e-06,3.0124231853156408e-06,1.569078786592756e-05,1.75560598189711e-05,1.174583100448108e-05,Unknown
0.1700480769999997,7.803419349756412e-06,4.963603872864032e-06,3.015500426270714e-06,1.5682944045562406e-05,1.7429546680615668e-05,1.1785364527268905e-05,Unknown
0.17056730799999986,7.803735177486654e-06,4.967160284874732e-06,3.015018292772579e-06,1.5671591469562814e-05,1.7348315215484825e-05,1.1856013476152895e-05,Unknown
0.17108653799999995,7.803626255289009e-06,4.97342205987111e-06,3.005694919182343e-06,1.5662591280471816e-05,1.7374791823719846e-05,1.1955403088823448e-05,Unknown
0.17160576900000013,7.802767223192234e-06,4.976676258166674e-06,2.9952630784315307e-06,1.5659072244268456e-05,1.7403546418744493e-05,1.2060816653532428e-05,Unknown
0.1721250000000003,7.800597283012686e-06,4.97715357827789e-06,2.992814153648008e-06,1.5659729754454717e-05,1.738988290445085e-05,1.2117385267113924e-05,Unknown
0.1726442309999996,7.795874679116167e-06,4.977789385890582e-06,2.9963902847797054e-06,1.566276358857721e-05,1.7389022801538163e-05,1.2118966692159557e-05,Unknown
0.17316346199999977,7.790073021850605e-06,4.982649752017665e-06,2.999641490519012e-06,1.5666530756448213e-05,1.7406124445054487e-05,1.21422692223825e-05,Unknown
0.17368269199999986,7.787672842738214e-06,5.003809401557684e-06,3.0000224592707917e-06,1.5670312611768805e-05,1.7402592010763126e-05,1.2197599916743297e-05,Unknown
0.17420192300000004,7.787472359780034e-06,5.0481258067128864e-06,3.000115950124948e-06,1.5675655784569285e-05,1.738183888016035e-05,1.2221375177530057e-05,Unknown
0.1747211540000002,7.787812085798708e-06,5.09771114163486e-06,2.9986729049468555e-06,1.568318646805776e-05,1.7364291118272984e-05,1.2221308869799732e-05,Unknown
0.1752403850000004,7.78664138332111e-06,5.129551816397672e-06,2.988388852906126e-06,1.5691635132847116e-05,1.734701437482371e-05,1.22308131579513e-05,Unknown
0.1757596149999996,7.776763643571029e-06,5.142935946182462e-06,2.981098375478977e-06,1.5701022793434946e-05,1.7319076837434813e-05,1.2240362116622767e-05,Unknown
0.17627884599999977,7.768618609469179e-06,5.147781674143266e-06,2.9954164912337857e-06,1.5713785525259182e-05,1.727816448746635e-05,1.2242482837778497e-05,Unknown
0.17679807699999994,7.77702448729669e-06,5.147057735466568e-06,3.0219777819789954e-06,1.5732734176303524e-05,1.7240230320047245e-05,1.2242435438395916e-05,Unknown
0.17731730800000012,7.791707526060889e-06,5.140371322099347e-06,3.045185335069072e-06,1.575651682068141e-05,1.722083773669152e-05,1.2242049963483763e-05,Unknown
0.1778365380000002,7.80329494063379e-06,5.13067356023135e-06,3.0612849253462625e-06,1.5779302022139715e-05,1.7215157894474778e-05,1.2241119193443434e-05,Unknown
0.17835576900000039,7.818059822144805e-06,5.12350966058305e-06,3.070424111540063e-06,1.579738907277141e-05,1.721415775937005e-05,1.2240270203286235e-05,Unknown
0.17887499999999967,7.834633944457003e-06,5.1205439239569614e-06,3.072411955210024e-06,1.581204427069329e-05,1.7215597294408917e-05,1.2240117913119725e-05,Unknown
0.17939423099999985,7.846977781842313e-06,5.12133986787041e-06,3.066649906009369e-06,1.5825123591587873e-05,1.721860346107731e-05,1.223999477367833e-05,Unknown
0.17991346200000002,7.856312828927861e-06,5.126381647415104e-06,3.053954199658005e-06,1.5835347249248555e-05,1.7220414294945604e-05,1.2239678314879976e-05,Unknown
0.18043269200000012,7.860358242226566e-06,5.131349041478099e-06,3.038167670581662e-06,1.584092691608685e-05,1.722086431272528e-05,1.224146157356874e-05,Unknown
0.1809519230000003,7.858557948392171e-06,5.132562848245316e-06,3.0259103377138046e-06,1.5842997778120518e-05,1.7217664911849424e-05,1.2245307848184092e-05,Unknown
0.18147115399999958,7.856520538835913e-06,5.132385157389711e-06,3.020620203545834e-06,1.5843634381555364e-05,1.7209235472953935e-05,1.2247584268363396e-05,Unknown
0.18199038499999975,7.858973697031539e-06,5.132466615221567e-06,3.018993013693728e-06,1.58436324838845e-05,1.720470606225647e-05,1.2247879137230036e-05,Unknown
0.18250961499999985,7.87834099373859e-06,5.13253355016917e-06,3.0174861282040197e-06,1.584306312737006e-05,1.7205623801151652e-05,1.2247859832855951e-05,Unknown
0.18302884600000002,7.911198132528494e-06,5.13267502028698e-06,3.0144497586237e-06,1.584234604358252e-05,1.7204168079831923e-05,1.2247848879076755e-05,Unknown
0.1835480770000002,7.928345291591193e-06,5.132182183008921e-06,3.0097355305587373e-06,1.584190434894709e-05,1.7202632460305247e-05,1.2247468543884889e-05,Unknown
0.18406730800000037,7.92788940487424e-06,5.128747803536345e-06,3.004950955046928e-06,1.584160391866042e-05,1.7205154458929983e-05,1.2246152591512748e-05,Unknown
0.18458653799999958,7.928117793931765e-06,5.123214455538656e-06,2.9993845793220827e-06,1.584118824871877e-05,1.720719863618551e-05,1.22447706786599e-05,Unknown
0.18510576899999975,7.928478997726423e-06,5.122100154335822e-06,2.989985330459277e-06,1.5840697698778394e-05,1.7205195209552104e-05,1.2244423155239422e-05,Unknown
0.18562499999999993,7.930546592926025e-06,5.127729261289589e-06,2.9778333090696093e-06,1.5841227667246464e-05,1.7200998710157944e-05,1.2244531694923852e-05,Unknown
0.1861442310000001,7.939954719584905e-06,5.133899090617106e-06,2.9717587986848832e-06,1.584342105323168e-05,1.719747261463089e-05,1.2243984216903613e-05,Unknown
0.18666346200000028,7.946959326908652e-06,5.136085979792792e-06,2.9718055474911194e-06,1.5845937777628133e-05,1.719635270761596e-05,1.2241998380875158e-05,Unknown
0.18718269200000037,7.946016678046036e-06,5.132872123048454e-06,2.971677817257853e-06,1.5847456266397154e-05,1.719601863636937e-05,1.2239612804201906e-05,Unknown
0.18770192299999966,7.944166161187983e-06,5.123170393265705e-06,2.973077997306332e-06,1.5848102222992784e-05,1.7192328216830454e-05,1.2239734299361146e-05,Unknown
0.18822115399999984,7.943754292930035e-06,5.113704804537498e-06,2.9736367481119105e-06,1.5848538178886253e-05,1.7183425493313283e-05,1.224237467015646e-05,Unknown
0.188740385,7.943982138690864e-06,5.111099793216799e-06,2.974039644005025e-06,1.5849272970028468e-05,1.7170921904609754e-05,1.2244050003568208e-05,Unknown
0.1892596150000001,7.937750014995145e-06,5.111132019032671e-06,2.974476432435793e-06,1.5850174134375653e-05,1.716014743584129e-05,1.2244079904958948e-05,Unknown
0.18977884600000028,7.926527491907762e-06,5.1108995800791605e-06,2.9648588908579456e-06,1.5850159582534977e-05,1.715808025908583e-05,1.2244932782522738e-05,Unknown
0.19029807699999957,7.924630499703849e-06,5.111460439468952e-06,2.9527558822951217e-06,1.5849272217633482e-05,1.7163492759859634e-05,1.2246810212279542e-05,Unknown
0.19081730799999974,7.92733450132288e-06,5.112591316138339e-06,2.950740976183133e-06,1.5848618141621776e-05,1.716906166196784e-05,1.2248124194037169e-05,Unknown
0.19133653799999983,7.92979672114835e-06,5.112875831192996e-06,2.949447668162982e-06,1.5848665717915297e-05,1.7172335073228713e-05,1.2248630074412538e-05,Unknown
0.191855769,7.925834912584965e-06,5.106447999807211e-06,2.944805095524156e-06,1.585022072670407e-05,1.717344350703934e-05,1.224874911208202e-05,Unknown
0.19237500000000018,7.897580709728679e-06,5.091158878400867e-06,2.9435008019608573e-06,1.585337369612636e-05,1.7173543117483326e-05,1.2248461381697454e-05,Unknown
0.19289423100000036,7.860314329260397e-06,5.074718728676677e-06,2.9442430498991648e-06,1.585749554531724e-05,1.7185964862299604e-05,1.224857863106128e-05,Unknown
0.19341346199999965,7.842334663236568e-06,5.062630399599336e-06,2.945355890095965e-06,1.5863426103523465e-05,1.7260697406969665e-05,1.2249576889750526e-05,Unknown
0.19393269199999974,7.839821717665922e-06,5.051915708415247e-06,2.9473190951396987e-06,1.5872527181833825e-05,1.7438406458725995e-05,1.2249871391073248e-05,Unknown
0.19445192299999992,7.840039724559301e-06,5.036076871693271e-06,2.9484226918704003e-06,1.5883131288506796e-05,1.7669586489748124e-05,1.225037010007954e-05,Unknown
0.1949711540000001,7.839015139592255e-06,5.012660897534195e-06,2.9491941443932973e-06,1.5890626932624872e-05,1.7898105126049742e-05,1.225444392870964e-05,Unknown
0.19549038500000027,7.836695349016442e-06,4.9939756536145805e-06,2.9489417840300788e-06,1.589297956509133e-05,1.8152597773443397e-05,1.226116979966017e-05,Unknown
0.19600961500000036,7.837543711750881e-06,4.995706277173306e-06,2.946646239183686e-06,1.5892364296613407e-05,1.848586893796506e-05,1.2266614275515132e-05,Unknown
0.19652884599999965,7.837093909312418e-06,5.011781976187912e-06,2.945955677864977e-06,1.5891863774041745e-05,1.8808880543307872e-05,1.22700917469286e-05,Unknown
0.19704807699999982,7.823897064455877e-06,5.025215612748676e-06,2.9451527637561582e-06,1.5892855826192876e-05,1.8896627770570892e-05,1.2274091362913928e-05,Unknown
0.197567308,7.802404457318268e-06,5.030689534292837e-06,2.9419873307545314e-06,1.5894109586538802e-05,1.895119786944672e-05,1.2280824688095112e-05,Unknown
0.1980865380000001,7.78281566261049e-06,5.028852363901908e-06,2.9427207342849883e-06,1.589323172378731e-05,1.9553548731540703e-05,1.2289034766891938e-05,Unknown
0.19860576900000027,7.769044740808128e-06,5.020269304853292e-06,2.942648987590308e-06,1.5889352393961447e-05,2.049213019690848e-05,1.2294386169321577e-05,Unknown
0.19912500000000044,7.763616486696514e-06,5.01104785362914e-06,2.936476131649232e-06,1.5883825090623608e-05,2.105039860427027e-05,1.2295628848427434e-05,Unknown
0.19964423099999973,7.762632197587814e-06,5.006632792065526e-06,2.933521021191204e-06,1.5878301192980177e-05,2.11688677015766e-05,1.2295652867215755e-05,Unknown
0.2001634619999999,7.759642907474033e-06,5.005804461670487e-06,2.9345385977270712e-06,1.5873506548056378e-05,2.1169616805060003e-05,1.22971114679562e-05,Unknown
0.200682692,7.752112665235998e-06,5.005891468068448e-06,2.9331098340932907e-06,1.586969534694866e-05,2.118027084255824e-05,1.2301062032502246e-05,Unknown
0.20120192300000017,7.741868107169147e-06,5.005877814290244e-06,2.931120301343204e-06,1.586699284337341e-05,2.1196023905575515e-05,1.2305629112036774e-05,Unknown
0.20172115400000035,7.740006874211682e-06,5.010009191135553e-06,2.931013314729938e-06,1.586573888669911e-05,2.1209516494186785e-05,1.2306491941423368e-05,Unknown
0.20224038499999963,7.754515087964986e-06,5.02401979067576e-06,2.9315377384934904e-06,1.586601682090507e-05,2.1216597843734518e-05,1.2304594820630852e-05,Unknown
0.20275961499999973,7.77310056590012e-06,5.045618146836768e-06,2.931289952123464e-06,1.5867421429639184e-05,2.12168787392093e-05,1.2305187123807904e-05,Unknown
0.2032788459999999,7.78241248816882e-06,5.067148720386416e-06,2.927516651327172e-06,1.5869787821764002e-05,2.1218972124306654e-05,1.2307491697945905e-05,Unknown
0.20379807700000008,7.785041562775744e-06,5.081631659767488e-06,2.921032397082595e-06,1.587279010885908e-05,2.12257115869996e-05,1.2308286106951254e-05,Unknown
0.20431730800000025,7.785378385678824e-06,5.084356898690634e-06,2.917822032982121e-06,1.5875678234977796e-05,2.123483164153685e-05,1.230822715159968e-05,Unknown
0.20483653800000035,7.785209067638326e-06,5.074888968657672e-06,2.918547195295936e-06,1.587766408709185e-05,2.1248846059234937e-05,1.2308295242496454e-05,Unknown
0.20535576899999963,7.785374925706754e-06,5.058952240101735e-06,2.9204362357176845e-06,1.5878669868907346e-05,2.12700171884942e-05,1.2307888849794022e-05,Unknown
0.2058749999999998,7.782200971751845e-06,5.0473528565903416e-06,2.922374330743336e-06,1.5879440049344394e-05,2.12913680192985e-05,1.230669038752614e-05,Unknown
0.20639423099999998,7.777195133790423e-06,5.047035522066153e-06,2.9217192194176934e-06,1.5881105842733513e-05,2.1303014956296952e-05,1.2306157464422009e-05,Unknown
0.20691346200000016,7.777245384339252e-06,5.054674667100797e-06,2.920024030435848e-06,1.588453833416051e-05,2.130679792159812e-05,1.2307541976149668e-05,Unknown
0.20743269200000025,7.781498947432355e-06,5.065366973813389e-06,2.920506339400977e-06,1.5888779910843035e-05,2.130932041230692e-05,1.2309246039827042e-05,Unknown
0.20795192300000043,7.784974251957942e-06,5.078362301212369e-06,2.922028587443396e-06,1.589209253972159e-05,2.131375885170453e-05,1.2309742391741218e-05,Unknown
0.20847115399999971,7.785577087574366e-06,5.0935921308018665e-06,2.9234652603630487e-06,1.5894217209642346e-05,2.1319230575999903e-05,1.230977292793273e-05,Unknown
0.2089903849999999,7.781590663978774e-06,5.110569371603171e-06,2.923246192384057e-06,1.5895600966490977e-05,2.1320596682585244e-05,1.2310182931102563e-05,Unknown
0.20950961499999998,7.774559968909763e-06,5.125890841988641e-06,2.9230824569220584e-06,1.589631633455043e-05,2.1318606373007254e-05,1.2311171671706337e-05,Unknown
0.21002884600000016,7.769998500244577e-06,5.134894914322962e-06,2.9248744655772667e-06,1.5896346046867893e-05,2.132031208546271e-05,1.2311915578583143e-05,Unknown
0.21054807700000033,7.77133766180614e-06,5.137584783872877e-06,2.926908044032084e-06,1.589656211867224e-05,2.132621805452867e-05,1.2311415769807652e-05,Unknown
0.21106730799999962,7.778866915463743e-06,5.137997661940873e-06,2.9299322438196847e-06,1.5897882959246137e-05,2.132964807121518e-05,1.2309985221716662e-05,Unknown
0.2115865379999997,7.789522996083294e-06,5.14245320732106e-06,2.9335378782714964e-06,1.5899313804317703e-05,2.1329360753953185e-05,1.2308118245083118e-05,Unknown
0.2121057689999999,7.797928073603904e-06,5.151659126318079e-06,2.9422016973633963e-06,1.58997445252478e-05,2.1341471570207584e-05,1.230677224236542e-05,Unknown
0.21262500000000006,7.802258524479879e-06,5.157661402655668e-06,2.962866743828273e-06,1.589977714127239e-05,2.138509145928573e-05,1.2306670475830668e-05,Unknown
0.21314423100000024,7.803996868476466e-06,5.158517744525836e-06,2.977864496288414e-06,1.5900035869092348e-05,2.1426708888159305e-05,1.2306684246259574e-05,Unknown
0.21366346200000041,7.805737554661106e-06,5.158128746844095e-06,2.9694974308723524e-06,1.5900230280719346e-05,2.142719695868322e-05,1.2306384403809352e-05,Unknown
0.21418269199999962,7.810981841881406e-06,5.157974892730077e-06,2.954916226556227e-06,1.5900203610585074e-05,2.1462184042753116e-05,1.2306326882654673e-05,Unknown
0.2147019229999998,7.81781110738348e-06,5.159073938263337e-06,2.947628017048933e-06,1.5900383866445914e-05,2.159134459594109e-05,1.2306328040116354e-05,Unknown
0.21522115399999997,7.820932676806512e-06,5.159198223965188e-06,2.9365356970332744e-06,1.590047837243117e-05,2.1704056937755916e-05,1.2306329996678746e-05,Unknown
0.21574038500000015,7.819874939741164e-06,5.155313626980737e-06,2.9158222369706797e-06,1.5899560693039173e-05,2.1723407566297557e-05,1.2306171387760684e-05,Unknown
0.21625961500000024,7.812018359646915e-06,5.149455641344739e-06,2.8868072978732814e-06,1.5897920996110692e-05,2.172698321371233e-05,1.2305897869031442e-05,Unknown
0.2167788460000004,7.770803836982693e-06,5.1450369349304464e-06,2.852439822756387e-06,1.5896862706729078e-05,2.174526817008592e-05,1.2305799400404669e-05,Unknown
0.2172980769999997,7.620884149578848e-06,5.144746531516924e-06,2.825010227387584e-06,1.5896707036181726e-05,2.1744509856294957e-05,1.2305698284688484e-05,Unknown
0.21781730799999988,7.300753338852797e-06,5.1488949600242085e-06,2.810810975588786e-06,1.5896725807853362e-05,2.176013433667715e-05,1.2305938576085428e-05,Unknown
0.21833653799999997,6.888884622396257e-06,5.151988843772112e-06,2.803145007777922e-06,1.5896725483137613e-05,2.179138940628677e-05,1.2306358515037e-05,Unknown
0.21885576900000014,6.5469485197907394e-06,5.150654509679244e-06,2.796526374642919e-06,1.5896609684975135e-05,2.179571231445122e-05,1.2306118160818426e-05,Unknown
0.21937500000000032,6.335653854582357e-06,5.1495753877205645e-06,2.7931595443449525e-06,1.5896266509992553e-05,2.1799544505268205e-05,1.2305502445755173e-05,Unknown
0.2198942309999996,6.210030730317897e-06,5.151588591432851e-06,2.794547925124024e-06,1.589639621703906e-05,2.1801995778460902e-05,1.230501524893034e-05,Unknown
0.22041346199999978,6.127739764242769e-06,5.153837013453711e-06,2.7880455762771225e-06,1.589714085184449e-05,2.1810691705522497e-05,1.2305086332919636e-05,Unknown
0.22093269199999988,6.0871760538720045e-06,5.1547202719456965e-06,2.7713987024261397e-06,1.5897224378609555e-05,2.188985480527529e-05,1.2305458482954008e-05,Unknown
0.22145192300000005,6.086487392298735e-06,5.154892732731093e-06,2.761211980452937e-06,1.5895639027409106e-05,2.2007399314696355e-05,1.2304994224761607e-05,Unknown
0.22197115400000023,6.071773174330082e-06,5.154699525359144e-06,2.761863816708486e-06,1.589266117795127e-05,2.2084614922527e-05,1.2304408749409876e-05,Unknown
0.2224903850000004,5.9729047058492205e-06,5.1542555946626665e-06,2.768001772585354e-06,1.588883999776477e-05,2.211611832958384e-05,1.2304615841285314e-05,Unknown
0.2230096149999996,5.779723425404106e-06,5.153478964365499e-06,2.774833247164007e-06,1.5884147593625444e-05,2.2127364048237973e-05,1.2304771650437585e-05,Unknown
0.22352884599999978,5.539205058400942e-06,5.15171382539192e-06,2.780131005723743e-06,1.5877475378758138e-05,2.2131705240618158e-05,1.2304345493995024e-05,Unknown
0.22404807699999996,5.288438071363411e-06,5.148096241013872e-06,2.7872399434735138e-06,1.5867348328026663e-05,2.213286269182161e-05,1.2303806227719264e-05,Unknown
0.22456730800000013,5.048875470080343e-06,5.143031449811837e-06,2.802940088433987e-06,1.585443090978341e-05,2.213285463849721e-05,1.230372116690502e-05,Unknown
0.22508653800000022,4.844600167403624e-06,5.138016854240409e-06,2.8237815499013835e-06,1.5841447314643913e-05,2.2132849019786463e-05,1.2303782547774313e-05,Unknown
0.2256057690000004,4.6724468838341575e-06,5.134530250670208e-06,2.8312012014483347e-06,1.5830965738907144e-05,2.2133047830767135e-05,1.2303667164804124e-05,Unknown
0.2261249999999997,4.508402462429308e-06,5.1339165951607154e-06,2.830377661953077e-06,1.5823746208127737e-05,2.213688811516808e-05,1.2303734130110302e-05,Unknown
0.22664423099999986,4.3497653635565e-06,5.135803366436481e-06,2.836898927597187e-06,1.5816439864049036e-05,2.2147437133169848e-05,1.2303651356773044e-05,Unknown
0.22716346200000004,4.234873383176046e-06,5.138626598072243e-06,2.8416622769332675e-06,1.5802359169011446e-05,2.215986826333932e-05,1.2303164363346966e-05,Unknown
0.22768269200000013,4.197654419155724e-06,5.141901339447262e-06,2.8410167679169457e-06,1.5776428725566793e-05,2.2170187717265885e-05,1.230347007292046e-05,Unknown
0.2282019230000003,4.204858192687454e-06,5.146772674446024e-06,2.828924563352685e-06,1.5737353502959596e-05,2.218491740284008e-05,1.2304976142997838e-05,Unknown
0.2287211539999996,4.213302396849858e-06,5.154966695030054e-06,2.8054498313078133e-06,1.56860270859305e-05,2.2210980476910286e-05,1.2306724989349608e-05,Unknown
0.22924038499999977,4.217260926330288e-06,5.166614191689841e-06,2.8013388439074816e-06,1.5626179470007634e-05,2.2248322205148383e-05,1.230825305674977e-05,Unknown
0.22975961499999986,4.218190145918531e-06,5.178962861011331e-06,2.8163556615390736e-06,1.5564001176721588e-05,2.228617730028517e-05,1.2309621284910784e-05,Unknown
0.23027884600000004,4.228305343945722e-06,5.188273535425855e-06,2.820218036121712e-06,1.5501561034395115e-05,2.230763405782865e-05,1.2310537904965366e-05,Unknown
0.2307980770000002,4.2482464994541855e-06,5.193578969381888e-06,2.8077073832375597e-06,1.5433832225063724e-05,2.231093168378512e-05,1.2310203740609952e-05,Unknown
0.2313173080000004,4.254290691340081e-06,5.196504860547644e-06,2.786790984539093e-06,1.535430279840244e-05,2.231114887819664e-05,1.2307503297615313e-05,Unknown
0.2318365379999996,4.256993929872121e-06,5.198287377162636e-06,2.7700180698977977e-06,1.5263448756375185e-05,2.2315238698000956e-05,1.2301675157503775e-05,Unknown
0.23235576899999977,4.2791397524706204e-06,5.20046076848651e-06,2.767586161970696e-06,1.517012158169678e-05,2.2317495811647872e-05,1.229472976600358e-05,Unknown
0.23287499999999994,4.3025292149166914e-06,5.202232182324326e-06,2.7705256698569257e-06,1.5079697550765048e-05,2.2316630574561836e-05,1.229053703333905e-05,Unknown
0.23339423100000012,4.312166259785896e-06,5.201571770966518e-06,2.7702251493431227e-06,1.4984840829942067e-05,2.231567488510602e-05,1.2289481984680334e-05,Unknown
0.2339134620000003,4.314316273081512e-06,5.204369921728633e-06,2.770376364052907e-06,1.487061876690116e-05,2.231459756374073e-05,1.2289429006305454e-05,Unknown
0.2344326920000004,4.312266646722361e-06,5.21194489395709e-06,2.773117884794703e-06,1.4730858769054035e-05,2.2312228715213217e-05,1.229039822890182e-05,Unknown
0.23495192299999967,4.30639964261884e-06,5.210130919732875e-06,2.7746716936492194e-06,1.4585350575930846e-05,2.230959799058655e-05,1.2291227614011418e-05,Unknown
0.23547115399999985,4.299426313457401e-06,5.194180139369549e-06,2.7720379366638814e-06,1.4471711179359968e-05,2.230890496012095e-05,1.2290025077999562e-05,Unknown
0.23599038500000002,4.293903455907251e-06,5.17690391017539e-06,2.766328016312753e-06,1.4412129507811847e-05,2.2308963635097425e-05,1.228882772402087e-05,Unknown
0.23650961500000012,4.29165035146547e-06,5.165893060116057e-06,2.759221743446327e-06,1.4396933900698652e-05,2.230924522471177e-05,1.228879585920599e-05,Unknown
0.2370288460000003,4.289597294768001e-06,5.157875036543274e-06,2.751479422237164e-06,1.4399280716039353e-05,2.2309919943897453e-05,1.2288689748923718e-05,Unknown
0.23754807699999958,4.287439084771516e-06,5.1454041492472544e-06,2.744536750991612e-06,1.4391904272845604e-05,2.230985848057312e-05,1.2288456738483783e-05,Unknown
0.23806730799999976,4.299655663539513e-06,5.119143253287674e-06,2.7402181286721284e-06,1.4353404880142223e-05,2.2322451303666432e-05,1.228832975298798e-05,Unknown
0.23858653799999985,4.309771768295883e-06,5.076705740692542e-06,2.740271734868669e-06,1.427598995358264e-05,2.2391750576114343e-05,1.2288234958357185e-05,Unknown
0.23910576900000002,4.298429952689673e-06,5.0278334996392245e-06,2.744385599697312e-06,1.416866755353655e-05,2.25020401313798e-05,1.22879654754895e-05,Unknown
0.2396250000000002,4.29909586342269e-06,4.98398122705591e-06,2.7455629059641065e-06,1.4042282100205572e-05,2.2561849139267973e-05,1.2287833685946091e-05,Unknown
0.24014423100000037,4.315327671084377e-06,4.94643018779565e-06,2.7393952250718084e-06,1.3893984748245418e-05,2.2567782178861983e-05,1.2288824248137723e-05,Unknown
0.24066346199999966,4.322870293737319e-06,4.906084193109825e-06,2.733563872193929e-06,1.3710587564277556e-05,2.256796564847152e-05,1.2290735582608909e-05,Unknown
0.24118269199999975,4.321238595216186e-06,4.85135453785605e-06,2.730597933745564e-06,1.348388955489684e-05,2.2568116687433365e-05,1.2292247242193715e-05,Unknown
0.24170192299999993,4.3055249654698445e-06,4.78323521334143e-06,2.7328373185162183e-06,1.3218348197141656e-05,2.2578575011002825e-05,1.229274166574814e-05,Unknown
0.2422211540000001,4.341150207271792e-06,4.726448691804497e-06,2.744000158333293e-06,1.2921002458730157e-05,2.259800184049023e-05,1.2292646913919128e-05,Unknown
0.24274038500000028,4.504015336546083e-06,4.702600415108668e-06,2.75421672426598e-06,1.2589705518154768e-05,2.2601537995254357e-05,1.2292301252764376e-05,Unknown
0.24325961500000037,4.703109879027962e-06,4.6994966029033e-06,2.758740454057952e-06,1.2214425783854248e-05,2.259982529713565e-05,1.229175370236759e-05,Unknown
0.24377884599999966,4.8331613235388825e-06,4.699141959861406e-06,2.7537111493707443e-06,1.1791184778363376e-05,2.270468475267036e-05,1.2290989878401702e-05,Unknown
0.24429807699999984,4.902068710904283e-06,4.69794110718461e-06,2.7308950050934065e-06,1.1334619498413063e-05,2.314484267518836e-05,1.228960219141313e-05,Unknown
0.244817308,4.949844407779123e-06,4.693832467924527e-06,2.6994244987621463e-06,1.087489486377494e-05,2.397016129628697e-05,1.2286180314296648e-05,Unknown
0.2453365380000001,5.034649847866751e-06,4.694649183327679e-06,2.673391281929824e-06,1.0445153699851145e-05,2.4727220229769597e-05,1.22773952158366e-05,Unknown
0.24585576900000028,5.1869148317911215e-06,4.701381421189604e-06,2.65463364539577e-06,1.0070482572554184e-05,2.4989358861984942e-05,1.2261202416874384e-05,Unknown
0.24637499999999957,5.3477504329745305e-06,4.695032827834448e-06,2.640393846466288e-06,9.765474658759675e-06,2.498841721784421e-05,1.224189309401051e-05,Unknown
0.24689423099999974,5.450404963578526e-06,4.671153172288459e-06,2.6316280567173446e-06,9.537350828449286e-06,2.5111661159777284e-05,1.2226633089865957e-05,Unknown
0.24741346199999992,5.490411615087231e-06,4.63841319404155e-06,2.6319726334146583e-06,9.38434136913958e-06,2.5287172197502497e-05,1.2218848308389152e-05,Unknown
0.247932692,5.497859471131526e-06,4.595747831264859e-06,2.6424406076530763e-06,9.292094365261072e-06,2.533314970821394e-05,1.2217442593492218e-05,Unknown
0.24845192300000019,5.497838629871545e-06,4.541837417684354e-06,2.6545269029560344e-06,9.238223041851412e-06,2.533363438544065e-05,1.2218401235806926e-05,Unknown
0.24897115400000036,5.493349390759447e-06,4.481367443144707e-06,2.6574035607534294e-06,9.203307572346003e-06,2.5487783599146347e-05,1.2218197648303705e-05,Unknown
0.24949038499999965,5.47839784616038e-06,4.419366361053825e-06,2.656932145371728e-06,9.176645481748557e-06,2.578355625949696e-05,1.221800450363342e-05,Unknown
0.25000961499999974,5.4662055945820455e-06,4.360289539281725e-06,2.660901574743585e-06,9.155957075869504e-06,2.5934652472762264e-05,1.2217485588267836e-05,Sitting down
0.2505288459999999,5.4686032008561184e-06,4.303586856034138e-06,2.6647093819392377e-06,9.14275129210874e-06,2.5931631937572982e-05,1.2212164366435733e-05,Sitting down
0.2510480770000001,5.47651901313002e-06,4.246643135894516e-06,2.662911713405229e-06,9.137311341666457e-06,2.6358252538775997e-05,1.2209784989592117e-05,Sitting down
0.25156730800000027,5.492014742011956e-06,4.192917153598811e-06,2.6572633369313093e-06,9.138911033628031e-06,2.740268030381512e-05,1.2205389096815415e-05,Sitting down
0.25208653800000036,5.523281837647761e-06,4.146901656796856e-06,2.655632550547123e-06,9.14201501388085e-06,2.833731197506475e-05,1.2140565639754173e-05,Sitting down
0.25260576899999965,5.5625989802268e-06,4.109245208793191e-06,2.6544862315741578e-06,9.13985815718762e-06,2.8682058569440253e-05,1.1988477182404475e-05,Sitting down
0.2531249999999998,5.603174569441458e-06,4.079943450990024e-06,2.633292550846517e-06,9.134552156604977e-06,2.870434933396894e-05,1.1843972888595448e-05,Sitting down
0.253644231,5.653433699448636e-06,4.059718569935998e-06,2.5861476069400543e-06,9.128627353577802e-06,2.869575203379968e-05,1.1797969163990655e-05,Sitting down
0.2541634620000002,5.729575294892927e-06,4.047948163600015e-06,2.545597986973692e-06,9.120076611747371e-06,2.8681345165501736e-05,1.1801197048467173e-05,Sitting down
0.25468269200000027,5.827961890985348e-06,4.041590159943241e-06,2.5348567765021148e-06,9.108083428580842e-06,2.8684994405044075e-05,1.1774405685977753e-05,Sitting down
0.25520192300000044,5.908492782169475e-06,4.035371912965545e-06,2.5346135989075253e-06,9.086573647378494e-06,2.8715308649473467e-05,1.174354636651899e-05,Sitting down
0.25572115399999973,5.949131506374311e-06,4.024780467701223e-06,2.5383148367273573e-06,9.046192541681823e-06,2.8723496743361545e-05,1.1746015374353607e-05,Sitting down
0.2562403849999999,5.977996836615833e-06,4.011537085124091e-06,2.552400424937856e-06,8.988728910319179e-06,2.872955903634609e-05,1.1700407061548289e-05,Sitting down
0.256759615,6.010430723308231e-06,4.00203449989082e-06,2.559120462645451e-06,8.922329522337145e-06,2.8794634175529096e-05,1.1566448697213112e-05,Sitting down
0.25727884600000017,6.044034421405315e-06,3.998954178632891e-06,2.5520837192964565e-06,8.846762055031626e-06,2.891502355371581e-05,1.1476167971579706e-05,Sitting down
0.25779807700000035,6.073174441108269e-06,3.999939198489314e-06,2.548583925813993e-06,8.75334038249739e-06,2.905128182896105e-05,1.1470920108393192e-05,Sitting down
0.25831730799999963,6.069454322065921e-06,4.00063839227116e-06,2.5526143443899145e-06,8.633604651470727e-06,2.9195512883864367e-05,1.145886205167902e-05,Sitting down
0.2588365379999997,6.041458327181856e-06,3.998270377788787e-06,2.555113825953945e-06,8.484433528919319e-06,2.93694893066676e-05,1.1448278036752612e-05,Sitting down
0.2593557689999999,6.031362301923023e-06,3.99304103366303e-06,2.5549990523557158e-06,8.308872957073755e-06,2.9584128464136667e-05,1.1448282563179234e-05,Sitting down
0.2598750000000001,6.037903093822538e-06,3.98477611775745e-06,2.556769601844983e-06,8.115945660303837e-06,2.9803100744525243e-05,1.1429831751160846e-05,Sitting down
0.26039423100000025,6.040759748429129e-06,3.975469322332893e-06,2.557494617807366e-06,7.9166489933168e-06,2.9964298436830065e-05,1.1415043189027595e-05,Sitting down
0.26091346200000043,6.040822726695497e-06,3.968998036141747e-06,2.545577625898392e-06,7.7152790261175e-06,3.004103039206564e-05,1.1410412207493188e-05,Sitting down
0.26143269199999963,6.043056831805372e-06,3.966407436836344e-06,2.5173162242634493e-06,7.507824140897088e-06,3.005057402382076e-05,1.1406215235108588e-05,Sitting down
0.2619519229999998,6.046323913591385e-06,3.966773533655016e-06,2.4860792866822324e-06,7.29432542194037e-06,3.002430108385172e-05,1.140613620218337e-05,Sitting down
0.262471154,6.049161639174524e-06,3.9692859263737925e-06,2.466427610079503e-06,7.089714876384088e-06,2.999918557616893e-05,1.1384569324858677e-05,Sitting down
0.26299038500000016,6.049913890523974e-06,3.973928556846327e-06,2.4632851478206638e-06,6.91291346605209e-06,3.0008394977433787e-05,1.1054868300950727e-05,Sitting down
0.26350961500000025,6.049079881363662e-06,3.978040869183241e-06,2.4754393169197384e-06,6.769033005381159e-06,3.0054219887504296e-05,1.009347371228046e-05,Sitting down
0.26402884600000043,6.049296624433323e-06,3.967896882620263e-06,2.491874744911138e-06,6.651272870619802e-06,3.011156400768538e-05,8.950911053845447e-06,Sitting down
0.2645480769999997,6.052225471573857e-06,3.929674783454749e-06,2.496120066104059e-06,6.549261497986088e-06,3.0161690091344435e-05,8.475183685173597e-06,Sitting down
0.2650673079999999,6.073088247617328e-06,3.878831168420691e-06,2.48874435821026e-06,6.453608990915859e-06,3.020654842015584e-05,8.471025362667213e-06,Sitting down
0.265586538,6.116932926267663e-06,3.845429661101572e-06,2.481638705354705e-06,6.361072329208098e-06,3.0253134890879004e-05,8.318416136789606e-06,Sitting down
0.26610576900000016,6.150745457071795e-06,3.833389896983755e-06,2.476106381086584e-06,6.271079374686284e-06,3.0291591136735047e-05,8.103911170991599e-06,Sitting down
0.26662500000000033,6.152388659407993e-06,3.829731508341331e-06,2.47184047118368e-06,6.180514527430815e-06,3.031288025432857e-05,8.057500056662119e-06,Sitting down
0.2671442309999996,6.130513373434243e-06,3.8269804778128765e-06,2.474006532027611e-06,6.089771939900009e-06,3.0327302715672454e-05,8.048729243691929e-06,Sitting down
0.2676634619999998,6.107120027898173e-06,3.821322610826334e-06,2.482154368338061e-06,6.005170495582607e-06,3.0353100360491465e-05,7.988110719038501e-06,Sitting down
0.2681826919999999,6.102500352651766e-06,3.813646152458363e-06,2.4887547701680965e-06,5.932366494578606e-06,3.040712457295184e-05,7.959563187052733e-06,Sitting down
0.26870192300000006,6.10331598617228e-06,3.8079927196432967e-06,2.491828008890076e-06,5.873386676257505e-06,3.0470265584574337e-05,7.966824283650279e-06,Sitting down
0.26922115400000024,6.101973627317735e-06,3.804391756020934e-06,2.497186543420442e-06,5.827372655245217e-06,3.050067627261053e-05,7.953985744549348e-06,Sitting down
0.2697403850000004,6.116322709388008e-06,3.800845944365078e-06,2.506791414524335e-06,5.794177320250485e-06,3.0502554457481478e-05,7.915731818208198e-06,Sitting down
0.2702596149999996,6.131387346454909e-06,3.797427961706338e-06,2.514032674778352e-06,5.776060013607491e-06,3.049495792200062e-05,7.860547293679486e-06,Sitting down
0.2707788459999998,6.131771376777212e-06,3.795077918331001e-06,2.5064173633940184e-06,5.771551898167788e-06,3.046651360697602e-05,7.780674306443248e-06,Sitting down
0.27129807699999997,6.132592915502365e-06,3.793716910211326e-06,2.4808679870444754e-06,5.773282452558306e-06,3.041971321592016e-05,7.671992031764376e-06,Sitting down
0.27181730800000015,6.133743527383154e-06,3.791644458218879e-06,2.451944619651956e-06,5.77453036698467e-06,3.0375297702891652e-05,7.562552535131613e-06,Sitting down
0.27233653800000024,6.137519777325485e-06,3.785708821760585e-06,2.4333041156241666e-06,5.772727549185777e-06,3.033519580130568e-05,7.489499081729268e-06,Sitting down
0.2728557690000004,6.155064817844747e-06,3.773719645639009e-06,2.4302639953579466e-06,5.766313648730972e-06,3.0289884101954797e-05,7.455032196911067e-06,Sitting down
0.2733749999999997,6.167394565489115e-06,3.757862524101733e-06,2.4481360907928654e-06,5.7505910303330605e-06,3.023000213436512e-05,7.439086829481273e-06,Sitting down
0.2738942309999999,6.164905515755832e-06,3.74265743175114e-06,2.486114040410813e-06,5.719276806832483e-06,3.014904717383093e-05,7.42664913962181e-06,Sitting down
0.27441346200000005,6.16437261814943e-06,3.7287208576883046e-06,2.5258749333870816e-06,5.673763802193987e-06,3.0065089971697265e-05,7.41104755964732e-06,Sitting down
0.27493269200000015,6.161363862125276e-06,3.7138477358013486e-06,2.54495283410742e-06,5.624252148403856e-06,3.000858846636364e-05,7.392002582700504e-06,Sitting down
0.2754519230000003,6.154444241220372e-06,3.6992100923262193e-06,2.545364562836692e-06,5.576986189472214e-06,2.998068387119295e-05,7.3730896035385345e-06,Sitting down
0.2759711539999996,6.155987683921115e-06,3.688421428001897e-06,2.5467444049043066e-06,5.529587681258557e-06,2.9964154330447117e-05,7.356154753536033e-06,Sitting down
0.2764903849999998,6.156732831615865e-06,3.683004978277531e-06,2.547990800741977e-06,5.480480008329205e-06,2.9942321908999483e-05,7.340120211858885e-06,Sitting down
0.2770096149999999,6.154813696076254e-06,3.682061142733454e-06,2.5440384762962247e-06,5.436569933444073e-06,2.990257949103816e-05,7.324556757815378e-06,Sitting down
0.27752884600000005,6.15906825069776e-06,3.683464010562149e-06,2.54303137769968e-06,5.404921368823472e-06,2.986371006194322e-05,7.311456954927551e-06,Sitting down
0.2780480770000002,6.162245161608841e-06,3.685157331247517e-06,2.543534355970143e-06,5.3813200995804e-06,2.9855911774536068e-05,7.302630871729009e-06,Sitting down
0.2785673080000004,6.1614695402715065e-06,3.687828787006072e-06,2.543021325862379e-06,5.356476129147891e-06,2.9877526994316548e-05,7.297142203085716e-06,Sitting down
0.2790865379999996,6.157825140917971e-06,3.693906437852368e-06,2.5436549013480637e-06,5.326731199390704e-06,2.9902374747213874e-05,7.294927340182897e-06,Sitting down
0.2796057689999998,6.141757514271184e-06,3.702482935129005e-06,2.5479253946766063e-06,5.294710540591709e-06,2.9877062815638615e-05,7.297457387153322e-06,Sitting down
0.28012499999999996,6.110115952448549e-06,3.707474287071432e-06,2.5650959142768366e-06,5.260079395216997e-06,2.9710206439143617e-05,7.303651973083401e-06,Sitting down
0.28064423100000013,6.077055970515276e-06,3.701493320638425e-06,2.6001715327519312e-06,5.211676284802726e-06,2.9354894977767867e-05,7.303552244017507e-06,Sitting down
0.2811634620000003,6.0542212933963145e-06,3.686731239850669e-06,2.6387003523388986e-06,5.130532325859711e-06,2.8927655262549413e-05,7.277121017106741e-06,Sitting down
0.2816826920000004,6.043457716936552e-06,3.673858678154904e-06,2.665877847446965e-06,5.018300046632818e-06,2.861315704332841e-05,7.221513001049625e-06,Sitting down
0.2822019229999997,6.043500445322064e-06,3.666700678874212e-06,2.683598796080218e-06,4.91300145459757e-06,2.8453626268463223e-05,7.164878678415496e-06,Sitting down
0.28272115399999986,6.052592104986231e-06,3.661699911653218e-06,2.701911648406781e-06,4.843997476065246e-06,2.8381433044064567e-05,7.126947603995035e-06,Sitting down
0.28324038500000004,6.076024991107462e-06,3.6562871322636047e-06,2.727877077252824e-06,4.805378115551131e-06,2.835581406339141e-05,7.094692927377506e-06,Sitting down
0.28375961500000013,6.100933809743125e-06,3.650601666775159e-06,2.7521626129745203e-06,4.78302705421069e-06,2.8357284323093437e-05,7.033861009072404e-06,Sitting down
0.2842788460000003,6.1088208689250605e-06,3.645346717936625e-06,2.7555499189860973e-06,4.77070946990712e-06,2.8263494268420372e-05,6.899187871459052e-06,Sitting down
0.2847980769999996,6.108785684944104e-06,3.640391062634126e-06,2.7431469370395424e-06,4.766834093690547e-06,2.794537595337196e-05,6.710600842101974e-06,Sitting down
0.28531730799999977,6.094767168917938e-06,3.634034320012103e-06,2.7348705253282223e-06,4.768340953881984e-06,2.7632889653836717e-05,6.586466365711094e-06,Sitting down
0.28583653799999986,6.060027351283454e-06,3.625616047415089e-06,2.73312991180786e-06,4.76384630838801e-06,2.7588637275560773e-05,6.561155901801041e-06,Sitting down
0.28635576900000004,6.034653863914709e-06,3.61640428187831e-06,2.733463635359856e-06,4.74168993094492e-06,2.752443812483063e-05,6.562863507051637e-06,Sitting down
0.2868750000000002,6.0305353165413946e-06,3.6028078200287373e-06,2.732949641584016e-06,4.711028256779987e-06,2.7245615683692503e-05,6.5378159091039e-06,Sitting down
0.2873942310000004,6.032669448432232e-06,3.5802738870996823e-06,2.727499678204726e-06,4.6936455730388605e-06,2.7096508067387697e-05,6.3556947069254505e-06,Sitting down
0.2879134619999997,6.035340598589292e-06,3.5512425847528025e-06,2.7179733912028697e-06,4.693787807971892e-06,2.7123985434210917e-05,6.034574719669556e-06,Sitting down
0.28843269199999977,6.033397995163966e-06,3.5190407031091034e-06,2.708820487334774e-06,4.699593652569028e-06,2.7004865777805995e-05,5.903480363855764e-06,Sitting down
0.28895192299999994,6.029058085217766e-06,3.4844427462216536e-06,2.7018197849618825e-06,4.700462255416531e-06,2.6808017586850065e-05,5.891269149831381e-06,Sitting down
0.2894711540000001,6.030696171133918e-06,3.451477476350631e-06,2.6943410018676537e-06,4.694693057680112e-06,2.6758614872561416e-05,5.549472836075806e-06,Sitting down
0.2899903850000003,6.031057044751718e-06,3.4297948575078603e-06,2.685419003988035e-06,4.689554361420148e-06,2.6773419612246892e-05,4.961143882998319e-06,Sitting down
0.2905096150000004,6.026691247511147e-06,3.4248853039587733e-06,2.682701083742382e-06,4.689519342053441e-06,2.674926423789861e-05,4.598159273438887e-06,Sitting down
0.2910288459999997,6.023574668044137e-06,3.4305070046540784e-06,2.692708014483173e-06,4.690950484542714e-06,2.6726384339796437e-05,4.53626447053421e-06,Sitting down
0.29154807699999985,6.02222634467496e-06,3.4384285898944484e-06,2.7090210094519527e-06,4.688890783779244e-06,2.672096882759854e-05,4.546523450861784e-06,Sitting down
0.292067308,6.029370181088004e-06,3.4438382202108143e-06,2.7205608396211638e-06,4.682035588636473e-06,2.6720206959046555e-05,4.525989531692373e-06,Sitting down
0.2925865380000001,6.047373859254133e-06,3.4469226542059702e-06,2.723532928872968e-06,4.672880025482172e-06,2.6711203729246955e-05,4.471734470571938e-06,Sitting down
0.2931057690000003,6.061899412158786e-06,3.451716527480925e-06,2.7216302066462874e-06,4.662141874995159e-06,2.666641923407025e-05,4.409522734742841e-06,Sitting down
0.2936249999999996,6.066450044685522e-06,3.4560425208543023e-06,2.7205806483405025e-06,4.648291942702791e-06,2.660356562543573e-05,4.381387377797953e-06,Sitting down
0.29414423099999976,6.070458625388111e-06,3.4571415106887144e-06,2.7264516246037214e-06,4.633675241861471e-06,2.6580433889269755e-05,4.382060213540651e-06,Sitting down
0.29466346199999993,6.091475856761746e-06,3.458257336589154e-06,2.7411446854224743e-06,4.624237905653143e-06,2.6597245041731656e-05,4.343443628890735e-06,Sitting down
0.295182692,6.135414682329234e-06,3.4627182711317685e-06,2.753823436370297e-06,4.626965725344351e-06,2.659767455603377e-05,4.223970460123551e-06,Sitting down
0.2957019230000002,6.1734881764845415e-06,3.466354686272657e-06,2.755470898375091e-06,4.64150731080778e-06,2.6564073377507343e-05,4.023085547157011e-06,Sitting down
0.2962211540000004,6.185163207919649e-06,3.462708613997868e-06,2.754101091760181e-06,4.656993026693548e-06,2.6532153334738383e-05,3.7363716325081337e-06,Sitting down
0.29674038499999966,6.185508526181915e-06,3.45709170081624e-06,2.7554843061984223e-06,4.665751693958215e-06,2.652753749045346e-05,3.4094481043257777e-06,Sitting down
0.29725961499999976,6.185653546915716e-06,3.456212902270558e-06,2.7580446015722957e-06,4.6681237498386735e-06,2.6544450984976985e-05,3.225144731539383e-06,Sitting down
0.29777884599999993,6.185623227800198e-06,3.4572194338692428e-06,2.761140848280845e-06,4.665920080776311e-06,2.657416739636e-05,3.2295856603373093e-06,Sitting down
0.2982980770000001,6.185455332676697e-06,3.4521903212846248e-06,2.764644609772658e-06,4.656947639795795e-06,2.6622487773410784e-05,3.146720244642172e-06,Sitting down
0.2988173080000003,6.184432650502189e-06,3.423826228466941e-06,2.7698469917374464e-06,4.635475067682787e-06,2.668691908587531e-05,2.9406487249480187e-06,Sitting down
0.2993365380000004,6.192469610416233e-06,3.3623974576633087e-06,2.7767977886584998e-06,4.60268135756235e-06,2.6741684098071228e-05,2.880359550815951e-06,Sitting down
0.29985576899999966,6.223540793305542e-06,3.292450364335184e-06,2.7840105044738056e-06,4.569160809168876e-06,2.67703235484084e-05,2.9392048752885818e-06,Sitting down
0.30037499999999984,6.281843760226666e-06,3.2474886937310832e-06,2.7858707598125458e-06,4.54141662876043e-06,2.6779997070356382e-05,2.9571280188525025e-06,Sitting down
0.300894231,6.3580261387228136e-06,3.2309210497453978e-06,2.7761636087851994e-06,4.513574207754509e-06,2.6779981112796626e-05,2.964945590975781e-06,Sitting down
0.3014134620000002,6.42563319693981e-06,3.230959837224661e-06,2.753038986634406e-06,4.472317010896141e-06,2.678906528091058e-05,2.999217505255382e-06,Sitting down
0.3019326920000003,6.464026308658961e-06,3.246281379013751e-06,2.7232027491049797e-06,4.406508365739783e-06,2.6878788425756376e-05,3.048304824469185e-06,Sitting down
0.30245192299999957,6.479043159645902e-06,3.280605532571583e-06,2.6971787387379693e-06,4.322143609004149e-06,2.7187172381790234e-05,3.1077473385359392e-06,Sitting down
0.30297115399999974,6.487647683967215e-06,3.332424301335336e-06,2.6794885214694656e-06,4.242076253822243e-06,2.7760770344440064e-05,3.1701401358254467e-06,Sitting down
0.3034903849999999,6.504223789769976e-06,3.39050145613149e-06,2.6763293979907765e-06,4.180127785471035e-06,2.8293606779597787e-05,3.223524416555171e-06,Sitting down
0.304009615,6.537899162833592e-06,3.439307384482717e-06,2.689820489766106e-06,4.130121209290877e-06,2.840897754562938e-05,3.262175679249241e-06,Sitting down
0.3045288460000002,6.57681688527461e-06,3.466407248500077e-06,2.7097553967079174e-06,4.082748699281088e-06,2.8518196697455904e-05,3.2875070212384896e-06,Sitting down
0.30504807700000036,6.594611497596236e-06,3.4711914958675875e-06,2.73008236204552e-06,4.042535192284574e-06,2.9455012884548e-05,3.3008014484929444e-06,Sitting down
0.30556730799999965,6.591738695219284e-06,3.469980312116388e-06,2.756236047935073e-06,4.020378597038868e-06,3.0771027734407565e-05,3.299110239176674e-06,Sitting down
0.30608653799999974,6.587414370871727e-06,3.479223530632164e-06,2.797447238636045e-06,4.014033504882856e-06,3.137814089247305e-05,3.2869188676981108e-06,Sitting down
0.3066057689999999,6.5867007415111615e-06,3.502099454028701e-06,2.8546478150221542e-06,4.0132292541318445e-06,3.140268022471012e-05,3.2783636442540494e-06,Sitting down
0.3071250000000001,6.587202340706049e-06,3.526687390559736e-06,2.9171556081297617e-06,4.013273074866443e-06,3.147522665681635e-05,3.279655497720369e-06,Sitting down
0.30764423100000027,6.571120611358122e-06,3.538609174408874e-06,2.975407478697609e-06,4.015710473694062e-06,3.157805423159225e-05,3.290093008717772e-06,Sitting down
0.30816346200000044,6.5318901969095335e-06,3.5403232142843027e-06,3.0273624706204987e-06,4.025020916952388e-06,3.160033858232768e-05,3.309648700612521e-06,Sitting down
0.30868269199999965,6.513711469688571e-06,3.540355204145201e-06,3.072455969324848e-06,4.04421085358891e-06,3.160551765202466e-05,3.3357916027290943e-06,Sitting down
0.3092019229999998,6.528310180577687e-06,3.540068096474392e-06,3.1078093249012757e-06,4.069542535612272e-06,3.165005710014892e-05,3.3633902579097138e-06,Sitting down
0.309721154,6.534768667927982e-06,3.5387384634241e-06,3.133418799886041e-06,4.0925727593839e-06,3.1849225749030885e-05,3.389445526465821e-06,Sitting down
0.3102403850000002,6.534400017924036e-06,3.5329356693986118e-06,3.1549697870708357e-06,4.110406528222879e-06,3.2146549673594056e-05,3.418725375893608e-06,Sitting down
0.31075961500000027,6.534163388631136e-06,3.522914441919317e-06,3.180515545634101e-06,4.125230330795437e-06,3.232777195562389e-05,3.456841880720405e-06,Sitting down
0.31127884600000044,6.522575716777472e-06,3.5248884326019345e-06,3.2166926788396718e-06,4.142748902372514e-06,3.2363929164368434e-05,3.4979846678153206e-06,Sitting down
0.31179807699999973,6.5273191074600136e-06,3.5505600816065377e-06,3.263557109959157e-06,4.172870651029955e-06,3.235791957623551e-05,3.531154880473261e-06,Sitting down
0.3123173079999999,6.556904898342937e-06,3.5844886525973688e-06,3.31167286338633e-06,4.213466752588056e-06,3.2355182795232656e-05,3.550173632295248e-06,Sitting down
0.312836538,6.579120250276835e-06,3.60843556411562e-06,3.3532478994178017e-06,4.246344853511909e-06,3.235816344256863e-05,3.552814960740128e-06,Sitting down
0.3133557690000002,6.586513354923732e-06,3.6225991494903694e-06,3.389204138360298e-06,4.261064864049141e-06,3.236994398734707e-05,3.5458054564899547e-06,Sitting down
0.31387500000000035,6.587745964169345e-06,3.635140041441101e-06,3.4202244206651554e-06,4.262270261142791e-06,3.239718020692672e-05,3.544318729541876e-06,Sitting down
0.31439423099999964,6.5967025861531695e-06,3.653947165418562e-06,3.4460083570450218e-06,4.258106419267614e-06,3.243499629796653e-05,3.5539170388843923e-06,Sitting down
0.3149134619999998,6.630472646842758e-06,3.682363264629504e-06,3.4650752654829706e-06,4.257095971783649e-06,3.246399059278441e-05,3.5657874113772896e-06,Sitting down
0.3154326919999999,6.6764155430090864e-06,3.7163688756338224e-06,3.4755870106477235e-06,4.261087483825214e-06,3.247641708261725e-05,3.5720856731021573e-06,Sitting down
0.3159519230000001,6.709249716737794e-06,3.749251845445687e-06,3.4812351006699646e-06,4.264586279152342e-06,3.2481430851813485e-05,3.57380145098518e-06,Sitting down
0.31647115400000025,6.724330035324363e-06,3.776118933098462e-06,3.4874751795819298e-06,4.264478329232954e-06,3.248860932642787e-05,3.575044561439636e-06,Sitting down
0.31699038500000043,6.7286012774747456e-06,3.795523294333108e-06,3.496602591881972e-06,4.258757379914412e-06,3.2504775194698904e-05,3.5788214256371374e-06,Sitting down
0.31750961499999963,6.729046395010758e-06,3.810072141164719e-06,3.5040928231984958e-06,4.247478253878438e-06,3.2534118260007e-05,3.587700131878505e-06,Sitting down
0.3180288459999998,6.729221360230261e-06,3.823915514625797e-06,3.506363907627497e-06,4.231605442764702e-06,3.256693040408364e-05,3.5977765993339068e-06,Sitting down
0.318548077,6.731845493998575e-06,3.838539713608196e-06,3.506441329265016e-06,4.207555439976179e-06,3.2567484606871445e-05,3.601984969174155e-06,Sitting down
0.31906730800000016,6.742483359245182e-06,3.8508362141075655e-06,3.509783029682064e-06,4.1713784343842005e-06,3.250613984903815e-05,3.6035123321659098e-06,Sitting down
0.31958653800000025,6.756331284603017e-06,3.857149631374457e-06,3.51982186876905e-06,4.129340570515581e-06,3.240848733179613e-05,3.6022719799877157e-06,Sitting down
0.32010576900000043,6.762015086792853e-06,3.857410759278701e-06,3.526113529396561e-06,4.097045146925576e-06,3.231509961128015e-05,3.588593858864266e-06,Sitting down
0.3206249999999997,6.761643899948889e-06,3.849660288738475e-06,3.525431099625116e-06,4.081924410480811e-06,3.221776538194849e-05,3.56628751754699e-06,Sitting down
0.3211442309999999,6.760899503011267e-06,3.831864425701751e-06,3.530217630938326e-06,4.0764355967437335e-06,3.206748787809088e-05,3.5497664199560204e-06,Sitting down
0.32166346200000007,6.759952926957235e-06,3.811502345859289e-06,3.5384341465093834e-06,4.068722425524078e-06,3.188730488545097e-05,3.5431588141055264e-06,Sitting down
0.32218269200000016,6.760778656015716e-06,3.797932304847007e-06,3.5433553246457927e-06,4.057162007814744e-06,3.183505561838716e-05,3.538235977464816e-06,Sitting down
0.32270192300000033,6.760515504235951e-06,3.7909814392412383e-06,3.548903415870107e-06,4.0472585785772585e-06,3.18318753279865e-05,3.523097789775168e-06,Sitting down
0.3232211539999996,6.7582425497787824e-06,3.7881886760347737e-06,3.5665189598852053e-06,4.039300570315911e-06,3.1493759589945594e-05,3.4989061272966627e-06,Sitting down
0.3237403849999998,6.758709598882942e-06,3.789638709948876e-06,3.6111160589988336e-06,4.034818070494808e-06,3.089457347112306e-05,3.4823598125378988e-06,Sitting down
0.3242596149999999,6.756387204092527e-06,3.791974994041285e-06,3.671395031406218e-06,4.036619922575791e-06,3.0516835348938897e-05,3.4809210108157226e-06,Sitting down
0.32477884600000007,6.753488998974115e-06,3.793240273211135e-06,3.719329120372559e-06,4.040566966310841e-06,3.04747270510391e-05,3.4864398264895893e-06,Sitting down
0.32529807700000024,6.76259304356144e-06,3.795014077499749e-06,3.7522389524004726e-06,4.040768744501731e-06,3.074512559822366e-05,3.4879555842290717e-06,Sitting down
0.3258173080000004,6.7703017386327645e-06,3.797381535464612e-06,3.788515839958772e-06,4.034907205007998e-06,3.126150981990896e-05,3.47768943862203e-06,Sitting down
0.3263365379999996,6.765640987176341e-06,3.7993125621011152e-06,3.847854316597467e-06,4.027459156851842e-06,3.158473042451302e-05,3.4618034267234195e-06,Sitting down
0.3268557689999998,6.7587279986964655e-06,3.791925690934178e-06,3.929716905463859e-06,4.023997865329855e-06,3.159140009624595e-05,3.4573579630537805e-06,Sitting down
0.32737499999999997,6.743359797319032e-06,3.7634675202487854e-06,4.0087019657634245e-06,4.019459903562875e-06,3.168752139380916e-05,3.460336384578151e-06,Sitting down
0.32789423100000015,6.722063329388515e-06,3.7165176373120544e-06,4.069500841821079e-06,4.008071491734216e-06,3.185902402118047e-05,3.454281307632146e-06,Sitting down
0.3284134620000003,6.711999738822234e-06,3.6658426708219376e-06,4.120039699464402e-06,3.990817786616637e-06,3.18699947847191e-05,3.447664119026185e-06,Sitting down
0.3289326920000004,6.710576334962821e-06,3.6269630727833056e-06,4.173220004379041e-06,3.967124414027435e-06,3.196407389687022e-05,3.452218602629859e-06,Sitting down
0.3294519229999997,6.710099397145353e-06,3.608694992885816e-06,4.23187910574082e-06,3.941432439853168e-06,3.222183709505065e-05,3.462191259914196e-06,Sitting down
0.3299711539999999,6.711016919578413e-06,3.6080784158371074e-06,4.286751013551947e-06,3.924359813614258e-06,3.235642246856441e-05,3.472295977244015e-06,Sitting down
0.33049038500000005,6.715637509505018e-06,3.614392460502541e-06,4.3296113604556696e-06,3.918074711866692e-06,3.2348928021730306e-05,3.479031633844328e-06,Sitting down
0.33100961500000015,6.724905320022992e-06,3.618443070073509e-06,4.3632386203253215e-06,3.916350415560109e-06,3.235923494960043e-05,3.480195532371989e-06,Sitting down
0.3315288460000003,6.732280496908555e-06,3.6163728817840713e-06,4.396860378528357e-06,3.9117628149298105e-06,3.2410160378580834e-05,3.480410436073631e-06,Sitting down
0.3320480769999996,6.730756034140124e-06,3.608076952227609e-06,4.436830248569348e-06,3.899142219946959e-06,3.245393218909364e-05,3.4806149796269945e-06,Sitting down
0.3325673079999998,6.727037068300832e-06,3.5944707898774023e-06,4.478549972259469e-06,3.882142724945239e-06,3.246749453573979e-05,3.476261415856315e-06,Sitting down
0.3330865379999999,6.723854974161397e-06,3.5760256458493283e-06,4.511255503664919e-06,3.868884809102019e-06,3.2464905572876675e-05,3.470810265239776e-06,Sitting down
0.33360576900000005,6.724153213185361e-06,3.552113563297039e-06,4.531921512929498e-06,3.8619867104470325e-06,3.2500241433767534e-05,3.472611850703344e-06,Sitting down
0.3341250000000002,6.733370846049017e-06,3.524214955229805e-06,4.545261272440401e-06,3.862399257742631e-06,3.2613990249852015e-05,3.4800392249577005e-06,Sitting down
0.3346442310000004,6.738543940934209e-06,3.500167495931858e-06,4.553676971713487e-06,3.868673910607998e-06,3.27640382491786e-05,3.4858619900006348e-06,Sitting down
0.3351634619999997,6.737479012199753e-06,3.48797488603483e-06,4.554718648639405e-06,3.874371756875873e-06,3.287276289055498e-05,3.49163840551154e-06,Sitting down
0.3356826919999998,6.736348085543319e-06,3.487437185327297e-06,4.5512641009948924e-06,3.875058182859735e-06,3.290358631112597e-05,3.5030772323178643e-06,Sitting down
0.33620192299999996,6.727769038004091e-06,3.4927905422230657e-06,4.548933993428863e-06,3.870700009239804e-06,3.290604200891889e-05,3.518530347724621e-06,Sitting down
0.33672115400000013,6.716475094790401e-06,3.49582205230868e-06,4.54648058925033e-06,3.869632888748611e-06,3.309138163234594e-05,3.532020919044885e-06,Sitting down
0.3372403850000003,6.7102357762931495e-06,3.493271741447335e-06,4.540777142109837e-06,3.881382428989526e-06,3.367979017362349e-05,3.5406256473270542e-06,Sitting down
0.3377596150000004,6.705016725248469e-06,3.491311544106955e-06,4.52790890579128e-06,3.8979558390757326e-06,3.439228252035705e-05,3.545470469882885e-06,Sitting down
0.3382788459999997,6.701097494423808e-06,3.491815366276341e-06,4.516132124123084e-06,3.906429968452749e-06,3.4673240720113966e-05,3.550072060868159e-06,Sitting down
0.33879807699999986,6.694812073292897e-06,3.492398060502975e-06,4.522872865332994e-06,3.908547256979163e-06,3.467200716970136e-05,3.5590912400812185e-06,Sitting down
0.33931730800000004,6.685675632432287e-06,3.493168458601005e-06,4.540161197289363e-06,3.91020139461579e-06,3.4919953159282475e-05,3.5735650077320247e-06,Sitting down
0.33983653800000013,6.687303018260394e-06,3.493575855148988e-06,4.549891772201106e-06,3.913188516977157e-06,3.52740969604692e-05,3.587190685454332e-06,Sitting down
0.3403557690000003,6.700712910209064e-06,3.492160295945729e-06,4.555259914556671e-06,3.917729629454136e-06,3.54018264147681e-05,3.593841026934857e-06,Sitting down
0.3408749999999996,6.714162531669636e-06,3.488622202554037e-06,4.563321424515165e-06,3.920355308975609e-06,3.540462578913599e-05,3.594255841628868e-06,Sitting down
0.34139423099999977,6.723222340206386e-06,3.4859810772576166e-06,4.576593815476224e-06,3.920141663886715e-06,3.540668344995958e-05,3.5925316836728543e-06,Sitting down
0.34191346199999995,6.72936669260794e-06,3.4823585266041518e-06,4.594710470297454e-06,3.920779194831694e-06,3.540561572288013e-05,3.597012898713892e-06,Sitting down
0.34243269200000004,6.73383315208578e-06,3.473945156865431e-06,4.609830839516574e-06,3.922550132125025e-06,3.5411038684813874e-05,3.612746754816664e-06,Sitting down
0.3429519230000002,6.73589906812631e-06,3.464931460870708e-06,4.619236022803792e-06,3.924799420251234e-06,3.540717150148925e-05,3.627282810292895e-06,Sitting down
0.3434711540000004,6.733629477865229e-06,3.4603217767280345e-06,4.627309849113844e-06,3.929868419199531e-06,3.5399183131844736e-05,3.631337942009852e-06,Sitting down
0.3439903849999997,6.729336168307607e-06,3.460081890134241e-06,4.636881664827282e-06,3.945093880532888e-06,3.540856219193319e-05,3.631544464334938e-06,Sitting down
0.34450961499999977,6.72871647350181e-06,3.460088867897143e-06,4.646474594436255e-06,3.97489139430457e-06,3.5412143216649266e-05,3.630921772629381e-06,Sitting down
0.34502884599999994,6.729830814963132e-06,3.459216046948513e-06,4.655155845881362e-06,4.008660463873038e-06,3.541067879490118e-05,3.630426647375556e-06,Sitting down
0.3455480770000001,6.726230406459074e-06,3.461966414258733e-06,4.665983747443012e-06,4.035104237974839e-06,3.540513805560284e-05,3.630157672910717e-06,Sitting down
0.3460673080000003,6.720343020089165e-06,3.470337418341436e-06,4.682110718289987e-06,4.055248912175023e-06,3.536203781191215e-05,3.627981435239316e-06,Sitting down
0.3465865380000004,6.718341137668875e-06,3.481379550040829e-06,4.704182261786886e-06,4.074070670868818e-06,3.5299525760453235e-05,3.6286446819810302e-06,Sitting down
0.3471057689999997,6.717910904588739e-06,3.491827416334193e-06,4.725439122505746e-06,4.092231927441083e-06,3.5259932254711744e-05,3.63284209265092e-06,Sitting down
0.34762499999999985,6.721724841697699e-06,3.500539143179111e-06,4.737313942504086e-06,4.103960518469007e-06,3.524457257572729e-05,3.635684462582643e-06,Sitting down
0.348144231,6.732659530060128e-06,3.508425456540332e-06,4.742679544483843e-06,4.103299941759652e-06,3.523934093702766e-05,3.637843321455932e-06,Sitting down
0.3486634620000002,6.737411078876964e-06,3.51832442939872e-06,4.746993482357327e-06,4.091845875744215e-06,3.523793519258863e-05,3.641005769173278e-06,Sitting down
0.3491826920000003,6.737149412275803e-06,3.5347469033005385e-06,4.749354331011469e-06,4.077159984117871e-06,3.523832585751016e-05,3.6451423728219337e-06,Sitting down
0.3497019229999996,6.736366145032196e-06,3.560312662937757e-06,4.746307343198371e-06,4.06398143072083e-06,3.523860666660813e-05,3.650863159073957e-06,Sitting down
0.35022115399999976,6.72437316682864e-06,3.590390522202038e-06,4.7410003362111166e-06,4.047658875388241e-06,3.523891002522022e-05,3.657389332369758e-06,Sitting down
0.35074038499999993,6.706929691355199e-06,3.61663045013549e-06,4.744546957781076e-06,4.0151505033035e-06,3.524361047349482e-05,3.662189049918066e-06,Sitting down
0.351259615,6.694413465154927e-06,3.635601911538056e-06,4.752381695404409e-06,3.9542342741760285e-06,3.525537378301452e-05,3.663577176533734e-06,Sitting down
0.3517788460000002,6.684013169161228e-06,3.6498481158602415e-06,4.75389288267106e-06,3.8705314748666274e-06,3.5271391407545835e-05,3.663320174090317e-06,Sitting down
0.3522980770000004,6.672189370987582e-06,3.6610962692833366e-06,4.754097596697698e-06,3.791165133086238e-06,3.5291469714116735e-05,3.663333232371371e-06,Sitting down
0.35281730799999966,6.658614591829052e-06,3.666530314714348e-06,4.75626887400957e-06,3.7381274895419354e-06,3.5317906012484865e-05,3.662187356285736e-06,Sitting down
0.35333653799999976,6.647424759505535e-06,3.66361286357954e-06,4.759899220565797e-06,3.710088581722227e-06,3.534723631245139e-05,3.658887776649575e-06,Sitting down
0.35385576899999993,6.641547261857119e-06,3.6529495427016937e-06,4.762108792699351e-06,3.695398765687464e-06,3.536653135827825e-05,3.653131746709101e-06,Sitting down
0.3543750000000001,6.637643583561949e-06,3.6366062062393473e-06,4.753671831432981e-06,3.685175620064342e-06,3.536340928429175e-05,3.650510583550964e-06,Sitting down
0.3548942310000003,6.631275944860659e-06,3.618070877401389e-06,4.739817245841007e-06,3.6774005046121912e-06,3.5346192244854106e-05,3.653124953101348e-06,Sitting down
0.35541346199999957,6.61788012036298e-06,3.6029368964004016e-06,4.734799110000159e-06,3.673527979279361e-06,3.53342736671505e-05,3.651740569498906e-06,Sitting down
0.35593269199999966,6.6027148822793564e-06,3.594517224827073e-06,4.737467223226592e-06,3.673367784296177e-06,3.5332246701369274e-05,3.6509731638729306e-06,Sitting down
0.35645192299999984,6.599053149475355e-06,3.5905148334820817e-06,4.740810474787037e-06,3.675499592759768e-06,3.533195919282868e-05,3.663274681531279e-06,Sitting down
0.356971154,6.597259901611018e-06,3.587392538309929e-06,4.741368797366151e-06,3.677255538623104e-06,3.5329378695283174e-05,3.683068485453548e-06,Sitting down
0.3574903850000002,6.582974535941829e-06,3.58405379415456e-06,4.738804138907298e-06,3.676661404833036e-06,3.532857527997209e-05,3.698673445788232e-06,Sitting down
0.3580096150000003,6.56827202233482e-06,3.584000322754616e-06,4.736818379044215e-06,3.672783218720984e-06,3.533222580511507e-05,3.706894718297228e-06,Sitting down
0.35852884599999957,6.5624577151390204e-06,3.5907018320487405e-06,4.736844697601911e-06,3.6638070661064343e-06,3.5337374642033986e-05,3.70984201620864e-06,Sitting down
0.35904807699999974,6.56125459703317e-06,3.595982727573828e-06,4.736413699247201e-06,3.64884386301492e-06,3.534094751891631e-05,3.70995913170683e-06,Sitting down
0.3595673079999999,6.569275860309308e-06,3.590879211938655e-06,4.734567146174448e-06,3.631681249359511e-06,3.5342388996446946e-05,3.705837549378818e-06,Sitting down
0.360086538,6.5868898030951455e-06,3.5826911574876394e-06,4.734868376802096e-06,3.6169732562246673e-06,3.5342501627401e-05,3.6983925795226535e-06,Sitting down
0.3606057690000002,6.597212251257141e-06,3.5797986342184967e-06,4.739615193988072e-06,3.604880751489542e-06,3.534262413440457e-05,3.694193042594497e-06,Sitting down
0.36112500000000036,6.597927149534391e-06,3.580857712120265e-06,4.7468231402944326e-06,3.5942884075515968e-06,3.534469432210211e-05,3.693791800462715e-06,Sitting down
0.36164423099999965,6.597398299635584e-06,3.5847345522984666e-06,4.754505178544889e-06,3.584147684167088e-06,3.5349969944269965e-05,3.69410026672113e-06,Sitting down
0.3621634619999998,6.596884059772848e-06,3.5891087289064044e-06,4.761071435648919e-06,3.5742197752483508e-06,3.535705772778582e-05,3.6956932597249296e-06,Sitting down
0.3626826919999999,6.59576447226628e-06,3.591586128254601e-06,4.764693601667226e-06,3.5640906818636685e-06,3.536109585923974e-05,3.69815601081748e-06,Sitting down
0.3632019230000001,6.581108246928083e-06,3.594450342214226e-06,4.765400343200281e-06,3.5512125537074407e-06,3.535213888125203e-05,3.7003663137784473e-06,Sitting down
0.36372115400000027,6.562410612636311e-06,3.601186268048369e-06,4.763834726800438e-06,3.534636675230991e-06,3.5306393846976825e-05,3.702581668649631e-06,Sitting down
0.36424038500000044,6.563229739099845e-06,3.614763469965732e-06,4.760359519811276e-06,3.515634143542992e-06,3.5236434443249326e-05,3.706502482387008e-06,Sitting down
0.36475961499999965,6.564007150742148e-06,3.629316813684895e-06,4.758837312880143e-06,3.496886486796969e-06,3.520304882892999e-05,3.7140296113514394e-06,Sitting down
0.3652788459999998,6.55333666592748e-06,3.634698372910661e-06,4.762522131440935e-06,3.4809031391481897e-06,3.521253344041351e-05,3.722686690182645e-06,Sitting down
0.365798077,6.550479789534456e-06,3.632845120005231e-06,4.769801575077845e-06,3.467519448662183e-06,3.523589774929788e-05,3.727931420328058e-06,Sitting down
0.3663173080000002,6.553605549991984e-06,3.630033973296758e-06,4.7810168924226215e-06,3.45747251206274e-06,3.526704234557666e-05,3.730117321427936e-06,Sitting down
0.36683653800000027,6.54827194418391e-06,3.629286186564252e-06,4.790458515624047e-06,3.454049728075037e-06,3.529356654121441e-05,3.731724288118488e-06,Sitting down
0.36735576900000044,6.504450195563211e-06,3.6349961675330295e-06,4.788130362560474e-06,3.4570780159117173e-06,3.530499625087147e-05,3.732447235475776e-06,Sitting down
0.36787499999999973,6.3903605217572094e-06,3.6474536736843486e-06,4.780833221563615e-06,3.4597528949861915e-06,3.5307210001187534e-05,3.732436013933062e-06,Sitting down
0.3683942309999999,6.246738724429317e-06,3.6602834939969634e-06,4.779515272094122e-06,3.4584840052184823e-06,3.530572334916608e-05,3.732968760395209e-06,Sitting down
0.3689134620000001,6.144767608613783e-06,3.667016857450635e-06,4.780646704244375e-06,3.456272727484072e-06,3.5254311966639545e-05,3.7333833041268247e-06,Sitting down
0.3694326920000002,6.091823881855448e-06,3.6678383625213114e-06,4.780671665247159e-06,3.454333792624976e-06,3.500354655885706e-05,3.733069573822351e-06,Sitting down
0.36995192300000035,6.055949933859792e-06,3.667741831527296e-06,4.780863405784259e-06,3.4509779197831333e-06,3.44827929280008e-05,3.732417088234701e-06,Sitting down
0.37047115399999964,5.997370919435115e-06,3.6636865388862153e-06,4.780695001098045e-06,3.444726287240762e-06,3.3977145370236855e-05,3.730522238089532e-06,Sitting down
0.3709903849999998,5.882751527067904e-06,3.655894855181767e-06,4.780551459893777e-06,3.437423408121558e-06,3.381955712231996e-05,3.727644481897914e-06,Sitting down
0.3715096149999999,5.739735136697703e-06,3.6569214519008535e-06,4.779307153710175e-06,3.430754330855318e-06,3.386503853557628e-05,3.726135878848564e-06,Sitting down
0.3720288460000001,5.63742432216151e-06,3.6625264250189313e-06,4.777323248698679e-06,3.425140580297866e-06,3.381872617408194e-05,3.726158131214327e-06,Sitting down
0.37254807700000026,5.600416163532829e-06,3.662064353057056e-06,4.774159495343415e-06,3.4228809704641902e-06,3.372117909374229e-05,3.725406494283248e-06,Sitting down
0.37306730800000043,5.606725072517047e-06,3.665412798290248e-06,4.764769470719414e-06,3.4232425291435773e-06,3.37210555546149e-05,3.7233077894863305e-06,Sitting down
0.37358653799999963,5.625938332673451e-06,3.6758692909993447e-06,4.751297813208495e-06,3.423691712524936e-06,3.378889926989478e-05,3.721356548336077e-06,Sitting down
0.3741057689999998,5.63595033314875e-06,3.6842410246013294e-06,4.742134437797788e-06,3.4238768021309304e-06,3.379334151511107e-05,3.71944768810863e-06,Sitting down
0.374625,5.6372006799437485e-06,3.688577864366053e-06,4.7426068142437325e-06,3.4243336520814207e-06,3.368741856210446e-05,3.7216854921121617e-06,Sitting down
0.37514423100000016,5.636742926926603e-06,3.6874762556878553e-06,4.751447546767039e-06,3.4272443355270552e-06,3.3620215268225974e-05,3.73252570030109e-06,Sitting down
0.37566346200000034,5.637045002819105e-06,3.682141327266532e-06,4.76158616546493e-06,3.437590460151517e-06,3.362134616248603e-05,3.743479829617824e-06,Sitting down
0.37618269200000043,5.637084775918009e-06,3.679839016146844e-06,4.768665989226248e-06,3.453332344863433e-06,3.32824295450175e-05,3.747256105899096e-06,Sitting down
0.3767019229999997,5.622505539220787e-06,3.681055827254864e-06,4.773331589124667e-06,3.45984070104398e-06,3.242501687541769e-05,3.7476879997376017e-06,Sitting down
0.3772211539999999,5.5896057855056905e-06,3.6816811906616255e-06,4.7757892314669545e-06,3.4568409994283503e-06,3.1612649292917766e-05,3.750898017937357e-06,Sitting down
0.37774038500000007,5.55437095105501e-06,3.680917271041059e-06,4.776855214757449e-06,3.4573708305510788e-06,3.130452245225737e-05,3.763158195247279e-06,Sitting down
0.37825961500000016,5.515941506861738e-06,3.6789926139268633e-06,4.777320769912177e-06,3.4581585538254765e-06,3.1282519442369695e-05,3.782443309439231e-06,Sitting down
0.37877884600000034,5.460319018025676e-06,3.674713200879972e-06,4.777254768319387e-06,3.45888586139356e-06,3.128038370778374e-05,3.795246389728145e-06,Sitting down
0.3792980769999996,5.379285385030057e-06,3.664682636944531e-06,4.776565342364246e-06,3.465695407943694e-06,3.128000575629595e-05,3.792805747205348e-06,Sitting down
0.3798173079999998,5.271127682038874e-06,3.646552138077568e-06,4.775111983991557e-06,3.4665176495139022e-06,3.126670155769085e-05,3.779839203386025e-06,Sitting down
