Time,Rectus Femoris,Vastus Medialis,Vastus Lateralis,Bicep Femoris,Tibialis,Gastrocnemius Medialis,Trimmed Time
4.897384615,3.3172193648074146e-05,4.816573870370047e-06,4.728727954524554e-06,9.186830318535678e-06,8.01634779970004e-05,7.655847360168757e-06,0.00025961499999915816
4.897903846,3.311143601903208e-05,4.81707090780439e-06,4.72863796667599e-06,9.189028577574344e-06,8.028166856221472e-05,7.664253530170885e-06,0.0007788459999993336
4.898423077,3.311153059664107e-05,4.818331643642036e-06,4.733682101159023e-06,9.19476859863194e-06,8.04635700339823e-05,7.658657589147975e-06,0.001298076999999509
4.898942308,3.308043635344125e-05,4.817413308925733e-06,4.740769014651861e-06,9.197259343586098e-06,8.067582328226027e-05,7.660861321292295e-06,0.0018173079999987962
4.899461538,3.3019608025546805e-05,4.810464444752912e-06,4.73826224492628e-06,9.193299316607878e-06,8.065882586896306e-05,7.642190120954364e-06,0.002336537999998889
4.899980769,3.287161926577229e-05,4.79895420838681e-06,4.7171570636484055e-06,9.183123905922755e-06,8.044960347364993e-05,7.621776087742848e-06,0.0028557689999990643
4.9005,3.279027562034589e-05,4.792851203084164e-06,4.68963813364143e-06,9.16553019601314e-06,8.03218160943737e-05,7.63222728273867e-06,0.0033749999999992397
4.901019231,3.281681663027894e-05,4.7995590744695165e-06,4.667423267742712e-06,9.148551831536744e-06,8.025089771729967e-05,7.64533111606303e-06,0.003894230999999415
4.901538462,3.261063314995982e-05,4.80827287616005e-06,4.649219136126821e-06,9.144261650242536e-06,8.00800967609772e-05,7.643107423625431e-06,0.0044134619999995905
4.902057692,3.2237483281603914e-05,4.803502071558325e-06,4.634869936380851e-06,9.14552200876624e-06,7.970613493198092e-05,7.613965970249162e-06,0.004932691999998795
4.902576923,3.208859448888206e-05,4.792357806479432e-06,4.629151641467642e-06,9.144763825871313e-06,7.926871549182024e-05,7.550703608635907e-06,0.0054519229999989705
4.903096154,3.209203585401717e-05,4.790030171193212e-06,4.628125810256942e-06,9.1443095351023e-06,7.920845019456186e-05,7.502276861721312e-06,0.005971153999999146
4.903615385,3.2020743803838855e-05,4.793725598796898e-06,4.624646962036424e-06,9.14417937999801e-06,7.948264869702437e-05,7.488342844877256e-06,0.006490384999999321
4.904134615,3.1727836836634415e-05,4.798656848495784e-06,4.616066599276108e-06,9.147238387553105e-06,7.964741055755543e-05,7.477959711213255e-06,0.007009614999999414
4.904653846,3.1108058996713555e-05,4.80796342918636e-06,4.6032028206388965e-06,9.150145356393575e-06,7.965145898006462e-05,7.450186412047878e-06,0.007528845999999589
4.905173077,3.0444272092308467e-05,4.8145737721936594e-06,4.590731225607889e-06,9.148807422886197e-06,7.959399668719956e-05,7.382512027751753e-06,0.008048076999998877
4.905692308,3.0089288507098545e-05,4.80988419015072e-06,4.58107526774376e-06,9.149220327225257e-06,7.959410588508286e-05,7.290648509323114e-06,0.008567307999999052
4.906211538,2.996563401277082e-05,4.800573922163353e-06,4.570687575247688e-06,9.148970508870604e-06,7.97777126178015e-05,7.232053908705835e-06,0.009086537999999145
4.906730769,2.989879715161583e-05,4.797296924522127e-06,4.550378222761825e-06,9.145681818134823e-06,7.986197801866364e-05,7.21169971591436e-06,0.00960576899999932
4.90725,2.986725946874845e-05,4.797552040684582e-06,4.508371355645223e-06,9.14585603737213e-06,7.965599266423805e-05,7.202461087208527e-06,0.010124999999999496
4.907769231,2.986729365018687e-05,4.79139009859979e-06,4.44932829727807e-06,9.146756183054155e-06,7.94311522395898e-05,7.19786443930936e-06,0.010644230999998783
4.908288462,2.9776420048555723e-05,4.78316544218057e-06,4.408842242396261e-06,9.144431966534097e-06,7.933331401630862e-05,7.18499319190888e-06,0.011163461999998958
4.908807692,2.948207051531859e-05,4.7836900285255885e-06,4.406032277616154e-06,9.141663480199923e-06,7.927906930365621e-05,7.163774339639526e-06,0.01168269199999905
4.909326923,2.9149474567717997e-05,4.791156756868472e-06,4.4092916191511095e-06,9.13899858714934e-06,7.916094634987404e-05,7.153774773055934e-06,0.012201922999999226
4.909846154,2.896604590931648e-05,4.798734659849818e-06,4.404631032296799e-06,9.133549768599776e-06,7.886980817442324e-05,7.157941845059945e-06,0.012721153999999402
4.910365385,2.884467594665906e-05,4.804384209631508e-06,4.406072235925424e-06,9.120233458466406e-06,7.846044031796242e-05,7.164565051477131e-06,0.013240384999999577
4.910884615,2.857165037853148e-05,4.8086885908602845e-06,4.406878534236198e-06,9.097977862963826e-06,7.811969830943644e-05,7.158863000073369e-06,0.013759614999998782
4.911403846,2.7958180099531167e-05,4.811623767566011e-06,4.407934327488445e-06,9.075597757609324e-06,7.793508814803109e-05,7.133418473997901e-06,0.014278845999998957
4.911923077,2.7131027787280636e-05,4.814657367626658e-06,4.425418434320088e-06,9.063197790020344e-06,7.797518301027013e-05,7.099519261204695e-06,0.014798076999999132
4.912442308,2.6525400731415205e-05,4.822228811340545e-06,4.4408809871308106e-06,9.057959678151393e-06,7.820984352350706e-05,7.062749166592931e-06,0.015317307999999308
4.912961538,2.631133378731464e-05,4.83942657613703e-06,4.43748788979187e-06,9.04907672166658e-06,7.838698621818718e-05,7.020021140799576e-06,0.0158365379999994
4.913480769,2.6296905188870904e-05,4.860633662340458e-06,4.437543046266021e-06,9.029670643071065e-06,7.841274062922203e-05,6.9898594037512284e-06,0.016355768999999576
4.914,2.6293077045709016e-05,4.875280057215472e-06,4.4361971584064e-06,8.988835839479782e-06,7.838662629559521e-05,6.98392684794741e-06,0.016874999999998863
4.914519231,2.613228417224154e-05,4.884848905987752e-06,4.462444456479816e-06,8.915559558259133e-06,7.838875948930544e-05,6.984098730268474e-06,0.01739423099999904
4.915038462,2.565863444171156e-05,4.8962509903497004e-06,4.570766817228583e-06,8.813112334505762e-06,7.85462686417631e-05,6.988712520265877e-06,0.017913461999999214
4.915557692,2.516394219919725e-05,4.915052515168791e-06,4.686562726598503e-06,8.69044148225247e-06,7.871327149045028e-05,6.994154515661519e-06,0.018432691999999307
4.916076923,2.5025025958438248e-05,4.938617817710557e-06,4.728358306181094e-06,8.558843743368831e-06,7.860194900154978e-05,6.9842311183156845e-06,0.018951922999999482
4.916596154,2.502732297996645e-05,4.954303378713051e-06,4.716577191287342e-06,8.437242529095106e-06,7.838836861815351e-05,6.976500909583849e-06,0.01947115399999877
4.917115385,2.5037155623385165e-05,4.952645327568399e-06,4.696934040696217e-06,8.34224539973806e-06,7.829005870850968e-05,6.976321777597224e-06,0.019990384999998945
4.917634615,2.5048299194573293e-05,4.932406004777415e-06,4.69086702069965e-06,8.277577919088311e-06,7.824308780355952e-05,6.966824239491169e-06,0.020509614999999037
4.918153846,2.4818296311926525e-05,4.903877930004903e-06,4.690539622493028e-06,8.234818049440583e-06,7.81662141654601e-05,6.957085592539533e-06,0.021028845999999213
4.918673077,2.4529420261823865e-05,4.888232748127413e-06,4.692190357518431e-06,8.204320505626975e-06,7.785170425339045e-05,6.95422862258378e-06,0.021548076999999388
4.919192308,2.4495962617611177e-05,4.8916437143888185e-06,4.695228911207581e-06,8.188285900575153e-06,7.730325262739814e-05,6.956346330156204e-06,0.022067307999999564
4.919711538,2.455301255132704e-05,4.8881949100825785e-06,4.6955422382159226e-06,8.191585669226502e-06,7.694662955153187e-05,6.962989146260051e-06,0.022586537999998768
4.920230769,2.456511722632897e-05,4.864860580122255e-06,4.6949925013875165e-06,8.203745290751519e-06,7.691509481828075e-05,6.963825642858698e-06,0.023105768999998944
4.92075,2.456571449157585e-05,4.849887777233313e-06,4.698677069291732e-06,8.212861352839146e-06,7.697443761649942e-05,6.959585324201933e-06,0.02362499999999912
4.921269231,2.456774201989054e-05,4.855671022557055e-06,4.709550169257829e-06,8.217930733788256e-06,7.695085469117261e-05,6.958786696925448e-06,0.024144230999999294
4.921788462,2.4571344226209625e-05,4.862369380839934e-06,4.717023719345959e-06,8.217834495602419e-06,7.682557686738602e-05,6.962296879191241e-06,0.02466346199999947
4.922307692,2.44568741115514e-05,4.860970194294679e-06,4.716741311413349e-06,8.214828518088347e-06,7.681538954877007e-05,6.959719147023099e-06,0.025182691999999562
4.922826923,2.421817411452809e-05,4.8493326335916445e-06,4.716016290466407e-06,8.213906657305288e-06,7.708445519569682e-05,6.9249604344347e-06,0.02570192299999885
4.923346154,2.410729505177907e-05,4.829210923348774e-06,4.711270791157821e-06,8.212871909445157e-06,7.751336359009076e-05,6.844010196994861e-06,0.026221153999999025
4.923865385,2.416400026010088e-05,4.8163303063918285e-06,4.716497074074635e-06,8.208206109726308e-06,7.801225888557884e-05,6.7468541477285774e-06,0.0267403849999992
4.924384615,2.419637897944648e-05,4.814290753267214e-06,4.743040673636652e-06,8.199248255238897e-06,7.855056418514974e-05,6.677344655791334e-06,0.027259614999999293
4.924903846,2.4184235653880582e-05,4.813847225455933e-06,4.762102736440424e-06,8.187751620055537e-06,7.894469680549843e-05,6.633633633916181e-06,0.02777884599999947
4.925423077,2.416176726852084e-05,4.808921972092406e-06,4.762814251745074e-06,8.175385075383837e-06,7.911545956840178e-05,6.627734192464624e-06,0.028298076999998756
4.925942308,2.4139427936826685e-05,4.785592385309304e-06,4.760708565842204e-06,8.164339703144539e-06,7.918451617836612e-05,6.65564112030377e-06,0.02881730799999893
4.926461538,2.4205217869779183e-05,4.753022131490101e-06,4.7608905482464125e-06,8.161317229367068e-06,7.925458445317966e-05,6.657011101068752e-06,0.029336537999999024
4.926980769,2.427276697049136e-05,4.759083001852318e-06,4.771666028594504e-06,8.1680309046628e-06,7.938572003286966e-05,6.655066295439571e-06,0.0298557689999992
4.9275,2.4268525032162324e-05,4.826030634929903e-06,4.793562625353053e-06,8.173666977606669e-06,7.945315422728307e-05,6.649611397304779e-06,0.030374999999999375
4.928019231,2.429918201368509e-05,4.911608806107093e-06,4.805485410708764e-06,8.169946680433896e-06,7.927492346262038e-05,6.551243908503571e-06,0.03089423099999955
4.928538462,2.4138028472882247e-05,4.961200265409537e-06,4.804806193617062e-06,8.16302488251311e-06,7.902513831970902e-05,6.418493700193503e-06,0.03141346199999884
4.929057692,2.3766255526965536e-05,4.971232938578193e-06,4.814913831517812e-06,8.160127587823214e-06,7.890486443198747e-05,6.363423686776587e-06,0.03193269199999893
4.929576923,2.3618944883594086e-05,4.969226882654998e-06,4.836099439780678e-06,8.164757665471483e-06,7.883343767256961e-05,6.349490429073464e-06,0.032451922999999105
4.930096154,2.36211946044891e-05,4.968029735247192e-06,4.841063291167938e-06,8.17876647321587e-06,7.871162064017536e-05,6.323366743994235e-06,0.03297115399999928
4.930615385,2.362710577198958e-05,4.968227217748905e-06,4.8210586569327885e-06,8.188917917402685e-06,7.83878287426851e-05,6.270344412447741e-06,0.033490384999999456
4.931134615,2.375292438416469e-05,4.969925706944173e-06,4.791823584403663e-06,8.182441458959782e-06,7.78976249245908e-05,6.200618067857422e-06,0.03400961499999955
4.931653846,2.3827731983813017e-05,4.9704838607867306e-06,4.771063755764571e-06,8.17029457655624e-06,7.767355514589337e-05,6.1766868384807145e-06,0.034528845999998836
4.932173077,2.381519459288438e-05,4.969346614348381e-06,4.765735019963836e-06,8.16430819432161e-06,7.78031730229161e-05,6.200433472925497e-06,0.03504807699999901
4.932692308,2.383153415846319e-05,4.968941409749356e-06,4.7687802091229965e-06,8.161561910282585e-06,7.79503055458711e-05,6.211324980354513e-06,0.03556730799999919
4.933211538,2.3808209769772e-05,4.968947164877747e-06,4.772901591221618e-06,8.1509109209979e-06,7.799709994549412e-05,6.211354538311982e-06,0.03608653799999928
4.933730769,2.381633007379928e-05,4.966005483781923e-06,4.776310454582412e-06,8.125935232287829e-06,7.795487162726832e-05,6.201591524590519e-06,0.036605768999999455
4.93425,2.394762456952292e-05,4.954027665297269e-06,4.777824263317142e-06,8.103063256601681e-06,7.792154618609645e-05,6.17561983501103e-06,0.03712499999999874
4.934769231,2.409807217280251e-05,4.933344617519044e-06,4.777822004217294e-06,8.099254936818356e-06,7.80453476714653e-05,6.193415506005742e-06,0.03764423099999892
4.935288462,2.4192719472239545e-05,4.916433623087696e-06,4.780840545616605e-06,8.112128865738536e-06,7.822392199765581e-05,6.252554344703007e-06,0.03816346199999909
4.935807692,2.4194347916260488e-05,4.910820976894504e-06,4.790742361295782e-06,8.139710491114199e-06,7.841401051298421e-05,6.286239008947357e-06,0.038682691999999186
4.936326923,2.412908500236192e-05,4.9152013214257535e-06,4.798759477101785e-06,8.18882964109782e-06,7.87096344570888e-05,6.295419093345465e-06,0.03920192299999936
4.936846154,2.4121965252921827e-05,4.931158334815378e-06,4.794860828949856e-06,8.265775807775121e-06,7.897078391589637e-05,6.297634187247297e-06,0.03972115399999954
4.937365385,2.4136099946644115e-05,4.945876959907307e-06,4.792393316731282e-06,8.358486689100052e-06,7.908769301282613e-05,6.298588223466835e-06,0.040240384999998824
4.937884615,2.4076642859117703e-05,4.943076804818836e-06,4.803077729570488e-06,8.429954871787504e-06,7.91608344150201e-05,6.30228140751606e-06,0.04075961499999892
4.938403846,2.4027138388322027e-05,4.9381549687505785e-06,4.809374980983304e-06,8.457228557493483e-06,7.924901023894867e-05,6.289285879525989e-06,0.04127884599999909
4.938923077,2.39847263733335e-05,4.9418450931019614e-06,4.809485526802073e-06,8.45824098545491e-06,7.945239693767648e-05,6.280204154444757e-06,0.04179807699999927
4.939442308,2.3952038321043133e-05,4.947897252851405e-06,4.813443988942759e-06,8.450710750579692e-06,7.972880631870113e-05,6.313278504875026e-06,0.04231730799999944
4.939961538,2.409767873725917e-05,4.966310477707151e-06,4.812886337502796e-06,8.430238996831818e-06,7.976463378341935e-05,6.349172556517269e-06,0.042836537999999535
4.940480769,2.4315726879092632e-05,4.992987556731727e-06,4.809885909384201e-06,8.391012123068176e-06,7.954917050667416e-05,6.352392664021431e-06,0.04335576899999882
4.941,2.4354054629163387e-05,5.0105701871228286e-06,4.804659184309428e-06,8.337282145989486e-06,7.938191221167746e-05,6.3605520287249854e-06,0.043874999999999
4.941519231,2.424302086502414e-05,5.018829266014165e-06,4.798351068673975e-06,8.293143617330209e-06,7.930930580692652e-05,6.378343356806208e-06,0.044394230999999174
4.942038462,2.40815786900417e-05,5.022663820839867e-06,4.800561594333678e-06,8.279173284602624e-06,7.92210996326248e-05,6.384842636248484e-06,0.04491346199999935
4.942557692,2.400271825347897e-05,5.02702925692165e-06,4.803154768165406e-06,8.286002967330363e-06,7.902818932781315e-05,6.378361299554919e-06,0.04543269199999944
4.943076923,2.418509394283261e-05,5.029106813094906e-06,4.8024276534193146e-06,8.298218095390076e-06,7.87475403645729e-05,6.361108199341338e-06,0.04595192299999873
4.943596154,2.4496084512184926e-05,5.028125638117144e-06,4.792945412193496e-06,8.315302606433166e-06,7.86760552681715e-05,6.371863505870371e-06,0.046471153999998904
4.944115385,2.4683873470354623e-05,5.01938791922518e-06,4.771680223374568e-06,8.348292778017212e-06,7.886098232106303e-05,6.399478342862943e-06,0.04699038499999908
4.944634615,2.473728053070992e-05,4.988803364623822e-06,4.766327589204601e-06,8.404617874329338e-06,7.8997952912096e-05,6.39955340477641e-06,0.04750961499999917
4.945153846,2.4745982090212404e-05,4.953126356013271e-06,4.773854561871431e-06,8.476081597445617e-06,7.902854083294358e-05,6.399752853801172e-06,0.04802884599999935
4.945673077,2.475674121189368e-05,4.934484426342704e-06,4.766815841155891e-06,8.549244950761674e-06,7.905028700371409e-05,6.395829503286456e-06,0.04854807699999952
4.946192308,2.4696238001174604e-05,4.927470621688503e-06,4.764324898721904e-06,8.618098044709497e-06,7.91680461836859e-05,6.376358738886472e-06,0.04906730799999881
4.946711538,2.4457790428597056e-05,4.919430583275587e-06,4.774591507112848e-06,8.684686535166727e-06,7.937246964743741e-05,6.383603927641351e-06,0.0495865379999989
4.947230769,2.417829962392678e-05,4.902329821386667e-06,4.779662676292452e-06,8.75465575013194e-06,7.930312745290235e-05,6.402282588238917e-06,0.05010576899999908
4.94775,2.4056294297722885e-05,4.87606178967186e-06,4.777860892490726e-06,8.831639980005609e-06,7.88574985701422e-05,6.404588597179248e-06,0.050624999999999254
4.948269231,2.4071184654020505e-05,4.841215738438896e-06,4.765337818586339e-06,8.921648530595013e-06,7.842322803455514e-05,6.386393642845837e-06,0.05114423099999943
4.948788462,2.414858520169685e-05,4.789998473172345e-06,4.756168641324507e-06,9.03684735329496e-06,7.817645320569681e-05,6.323921227352619e-06,0.051663461999999605
4.949307692,2.420934234493236e-05,4.716461322332216e-06,4.757170030446068e-06,9.17326032402482e-06,7.79788707933786e-05,6.243776186425893e-06,0.05218269199999881
4.949826923,2.4192339482457948e-05,4.6429425110350974e-06,4.75713861674537e-06,9.300589385368771e-06,7.763139891777886e-05,6.203779554982128e-06,0.052701922999998985
4.950346154,2.4172619346548004e-05,4.608076008204781e-06,4.758388095871198e-06,9.393336971772435e-06,7.698325182349824e-05,6.201232357149287e-06,0.05322115399999916
4.950865385,2.4227680628047738e-05,4.61193378362012e-06,4.740721764136721e-06,9.450713854697043e-06,7.61756635232384e-05,6.213246598871165e-06,0.053740384999999335
4.951384615,2.443318721545845e-05,4.6307511979996485e-06,4.7010974282433206e-06,9.486933221470414e-06,7.55598112948594e-05,6.233614335338515e-06,0.05425961499999943
4.951903846,2.483364064619101e-05,4.65178973927033e-06,4.672335145687226e-06,9.518324541787885e-06,7.533650441512216e-05,6.242400122556444e-06,0.054778845999999604
4.952423077,2.5210367642615703e-05,4.658622646834146e-06,4.6656729468000726e-06,9.551883716981344e-06,7.557422619150112e-05,6.2312478435967455e-06,0.05529807699999889
4.952942308,2.5355782867036318e-05,4.653354827043603e-06,4.667458528087788e-06,9.58165529742336e-06,7.6121684632499e-05,6.215205816789053e-06,0.055817307999999066
4.953461538,2.5363206648889245e-05,4.6536025225241536e-06,4.665007021720915e-06,9.60370244643832e-06,7.65660432872802e-05,6.213532872914064e-06,0.05633653799999916
4.953980769,2.535404553847191e-05,4.65401002847361e-06,4.654031750259932e-06,9.627047520443656e-06,7.674926892332819e-05,6.237040262765658e-06,0.056855768999999334
4.9545,2.538109537284228e-05,4.652183054184519e-06,4.615659074259117e-06,9.661834602707624e-06,7.682482391188493e-05,6.272371211585912e-06,0.05737499999999951
4.955019231,2.546876251519569e-05,4.656935975270743e-06,4.575861300090529e-06,9.708139983277973e-06,7.698360599786298e-05,6.295471032402495e-06,0.0578942309999988
4.955538462,2.5517276982622984e-05,4.662975424687887e-06,4.589728264884046e-06,9.749052267279264e-06,7.740513631153898e-05,6.294788028634399e-06,0.05841346199999897
4.956057692,2.550237038824739e-05,4.664809069291248e-06,4.6182383430156565e-06,9.768198362969258e-06,7.78436436358525e-05,6.263244912086203e-06,0.058932691999999065
4.956576923,2.551291244473672e-05,4.664543780911264e-06,4.62182907460253e-06,9.778609984924588e-06,7.786669823476718e-05,6.228739381879295e-06,0.05945192299999924
4.957096154,2.5538306955160232e-05,4.663817524170446e-06,4.624177268730717e-06,9.797589382846586e-06,7.765307481570193e-05,6.240389494511779e-06,0.059971153999999416
4.957615385,2.553967240058883e-05,4.663153463152906e-06,4.627777445664318e-06,9.82828760449619e-06,7.752864586656357e-05,6.268079054358024e-06,0.06049038499999959
4.958134615,2.5541231257585457e-05,4.662428401923503e-06,4.624481189206109e-06,9.871786906111331e-06,7.745563997647945e-05,6.268894240506803e-06,0.061009614999998796
4.958653846,2.5509125792964382e-05,4.66361279563719e-06,4.6196960449858105e-06,9.914114173488198e-06,7.733663601987638e-05,6.280482260679785e-06,0.06152884599999897
4.959173077,2.5459672106071283e-05,4.673829840106315e-06,4.615736791374873e-06,9.940183327640718e-06,7.697615771384229e-05,6.312192633719162e-06,0.06204807699999915
4.959692308,2.5477236915085267e-05,4.690052158972673e-06,4.616875064804074e-06,9.958139444605933e-06,7.635486089299968e-05,6.3286252122771045e-06,0.06256730799999932
4.960211538,2.535197901207813e-05,4.694944320776788e-06,4.622320653864783e-06,9.97186046611768e-06,7.591248735498829e-05,6.326678938846134e-06,0.06308653799999941
4.960730769,2.485819366075429e-05,4.683481430136251e-06,4.621799644481313e-06,9.975547301185636e-06,7.586627532368672e-05,6.295945179885698e-06,0.06360576899999959
4.96125,2.4363112391631728e-05,4.655307759773735e-06,4.632227558259509e-06,9.975870671383911e-06,7.600282174945468e-05,6.242355477643569e-06,0.06412499999999888
4.961769231,2.4206512449908352e-05,4.610228967401019e-06,4.6768993414981775e-06,9.97796688721418e-06,7.61234647670201e-05,6.216403974473516e-06,0.06464423099999905
4.962288462,2.423341215194337e-05,4.561041531248799e-06,4.72462649332672e-06,9.97887646640284e-06,7.618962331188251e-05,6.218338376105157e-06,0.06516346199999923
4.962807692,2.437513713023765e-05,4.515552651964474e-06,4.7345491376324e-06,9.97588658053924e-06,7.63369506282021e-05,6.21420947082544e-06,0.06568269199999932
4.963326923,2.455279095209301e-05,4.474057507480908e-06,4.737315703549268e-06,9.963425620914583e-06,7.667112082249914e-05,6.211367447736511e-06,0.0662019229999995
4.963846154,2.4620008941968275e-05,4.442238725030937e-06,4.7840995389624525e-06,9.943192823854204e-06,7.714220167386268e-05,6.211181756277996e-06,0.06672115399999878
4.964365385,2.4603826605191323e-05,4.427871160704071e-06,4.8425421228403125e-06,9.932232731659964e-06,7.772644135647758e-05,6.183245159069618e-06,0.06724038499999896
4.964884615,2.4617401490088773e-05,4.422218415320319e-06,4.858674721519118e-06,9.942607454571954e-06,7.839680647387138e-05,6.133193526362933e-06,0.06775961499999905
4.965403846,2.472485023172719e-05,4.414545651495922e-06,4.8584777466377714e-06,9.964592205790618e-06,7.894592424373674e-05,6.106353252118264e-06,0.06827884599999923
4.965923077,2.479511508656629e-05,4.413314727427698e-06,4.8687597536109e-06,9.98678104747473e-06,7.921167966249058e-05,6.122947733141397e-06,0.0687980769999994
4.966442308,2.4768334185323946e-05,4.421262666225827e-06,4.865153514663386e-06,1.0020274621455256e-05,7.928812322714938e-05,6.16217941631335e-06,0.06931730799999958
4.966961538,2.4881444166436745e-05,4.431477769961552e-06,4.8560834904259695e-06,1.0087155817015605e-05,7.93363583457642e-05,6.192468116666746e-06,0.06983653799999878
4.967480769,2.5164089807962392e-05,4.43734187089181e-06,4.866884062148209e-06,1.0191167598762117e-05,7.9417191334911e-05,6.203584521087361e-06,0.07035576899999896
4.968,2.5358864709694463e-05,4.44175767160652e-06,4.885224886895944e-06,1.031572427136558e-05,7.93925359743127e-05,6.18756302837347e-06,0.07087499999999913
4.968519231,2.5394681429214014e-05,4.453664093548575e-06,4.896740779655184e-06,1.0441855313641472e-05,7.914755467202789e-05,6.167383804350015e-06,0.07139423099999931
4.969038462,2.5348736354581404e-05,4.464118545600144e-06,4.902395145587299e-06,1.0566094682259778e-05,7.893039449386237e-05,6.209452979293511e-06,0.07191346199999948
4.969557692,2.5332523898830928e-05,4.46446552777658e-06,4.9044872982103925e-06,1.0705882568184264e-05,7.889618789215698e-05,6.2722393400609015e-06,0.07243269199999958
4.970076923,2.540401517631592e-05,4.464006361535847e-06,4.9036765705171726e-06,1.0872247505263634e-05,7.889434067448879e-05,6.280904258733556e-06,0.07295192299999886
4.970596154,2.545363991655847e-05,4.46162573077764e-06,4.9017350681638845e-06,1.1051787594746164e-05,7.88520857501717e-05,6.279118398194367e-06,0.07347115399999904
4.971115385,2.545085861373879e-05,4.445023975406818e-06,4.90473199965995e-06,1.1223268652155973e-05,7.865557514131611e-05,6.280963108591202e-06,0.07399038499999921
4.971634615,2.5452591800995327e-05,4.424865995432534e-06,4.915266454355468e-06,1.1382852921068798e-05,7.836476180783061e-05,6.267265630346608e-06,0.07450961499999931
4.972153846,2.542809909092593e-05,4.419172139933683e-06,4.9296352045835765e-06,1.1550082603722967e-05,7.834458490015645e-05,6.274583863300622e-06,0.07502884599999948
4.972673077,2.5441230443066216e-05,4.419892915620117e-06,4.942111793407716e-06,1.1746435190716875e-05,7.854721478304106e-05,6.2786330260304505e-06,0.07554807699999877
4.973192308,2.555069751947229e-05,4.417628481488788e-06,4.950487721077027e-06,1.1977862064698484e-05,7.866749444562641e-05,6.256404572110941e-06,0.07606730799999895
4.973711538,2.566018513096373e-05,4.417047543894047e-06,4.957171223449872e-06,1.2234269262273926e-05,7.869358009488581e-05,6.255433623598387e-06,0.07658653799999904
4.974230769,2.573659522012125e-05,4.419046861125451e-06,4.96262374289852e-06,1.24965408848194e-05,7.865196457794272e-05,6.255621696697002e-06,0.07710576899999921
4.97475,2.57399195036632e-05,4.425232959225944e-06,4.959499079093382e-06,1.2749970843993012e-05,7.863300958588882e-05,6.238097323046398e-06,0.07762499999999939
4.975269231,2.5662225786037357e-05,4.432260315823831e-06,4.947415664094531e-06,1.2988993926222887e-05,7.877183592170652e-05,6.2375866424478575e-06,0.07814423099999956
4.975788462,2.566551350601221e-05,4.431545924671001e-06,4.944097377371957e-06,1.321284524561385e-05,7.893302546984814e-05,6.234416653945638e-06,0.07866346199999885
4.976307692,2.5757141209123497e-05,4.429302634779409e-06,4.950652215129193e-06,1.3426555253699747e-05,7.904481600387497e-05,6.226575789073874e-06,0.07918269199999894
4.976826923,2.57969950855588e-05,4.429018767197343e-06,4.953521567145814e-06,1.363316094311419e-05,7.922368204132688e-05,6.22861201117952e-06,0.07970192299999912
4.977346154,2.578888495632345e-05,4.429487112391148e-06,4.952516712199306e-06,1.3824502259222082e-05,7.941734472602773e-05,6.215474852650913e-06,0.0802211539999993
4.977865385,2.576062742199242e-05,4.429053123363105e-06,4.948396784187965e-06,1.3994452305166963e-05,7.953505178529387e-05,6.205925661882387e-06,0.08074038499999947
4.978384615,2.57142198315649e-05,4.417062219970443e-06,4.930846349032573e-06,1.413711969545447e-05,7.960346870286159e-05,6.20997978881883e-06,0.08125961499999956
4.978903846,2.568638109683486e-05,4.400444833210725e-06,4.885436938365014e-06,1.423471991115156e-05,7.965743358547963e-05,6.199265941361169e-06,0.08177884599999885
4.979423077,2.5680526632276e-05,4.3977674218118565e-06,4.822005276618579e-06,1.4289551236628864e-05,7.979220931766507e-05,6.185700307550511e-06,0.08229807699999903
4.979942308,2.573358250962256e-05,4.41049851741404e-06,4.770192051040891e-06,1.432753035426803e-05,7.995993764346124e-05,6.196637026789554e-06,0.0828173079999992
4.980461538,2.5864066684063797e-05,4.427970162564511e-06,4.740332960297196e-06,1.434379807725594e-05,7.990449948215763e-05,6.221710024671668e-06,0.0833365379999993
4.980980769,2.5945255336644772e-05,4.438898967329177e-06,4.7251118487736245e-06,1.4292969412910614e-05,7.968203930224875e-05,6.232578026102775e-06,0.08385576899999947
4.9815,2.594480921937659e-05,4.436169794784753e-06,4.715340132274327e-06,1.4127675163275332e-05,7.957070072700423e-05,6.232495269977782e-06,0.08437499999999876
4.982019231,2.5970225859480448e-05,4.414520259890344e-06,4.703272547163273e-06,1.3882887758494316e-05,7.952579305213142e-05,6.2329552363836645e-06,0.08489423099999893
4.982538462,2.593421997590979e-05,4.364822588921496e-06,4.688747380066084e-06,1.3705933090949742e-05,7.939291359694621e-05,6.237164290838902e-06,0.08541346199999911
4.983057692,2.5807911720597506e-05,4.298208773139761e-06,4.672820383320738e-06,1.3680260447961684e-05,7.910444914189679e-05,6.23191599549666e-06,0.0859326919999992
4.983576923,2.578728953116976e-05,4.25866155678618e-06,4.650665169812724e-06,1.3732681361857084e-05,7.873381766405037e-05,6.211514701499389e-06,0.08645192299999938
4.984096154,2.5807192156789435e-05,4.259684378756922e-06,4.627591795352816e-06,1.378280720995112e-05,7.860892202701139e-05,6.209899938458569e-06,0.08697115399999955
4.984615385,2.5766779743725835e-05,4.261075279805868e-06,4.620829680619458e-06,1.3817490152173444e-05,7.875710797541107e-05,6.212932924966853e-06,0.08749038499999884
4.985134615,2.5776033565472178e-05,4.2449490658907655e-06,4.622059835952054e-06,1.3844245390295504e-05,7.886976576963881e-05,6.200714615786116e-06,0.08800961499999893
4.985653846,2.5789640458661535e-05,4.2338116289618375e-06,4.595781958567176e-06,1.3867630823464106e-05,7.889600134220155e-05,6.209199059781588e-06,0.0885288459999991
4.986173077,2.5785164067139663e-05,4.232888363434224e-06,4.537103455778561e-06,1.388759596378094e-05,7.892203994585313e-05,6.221285313759247e-06,0.08904807699999928
4.986692308,2.584788337040788e-05,4.232826395733764e-06,4.481347171159878e-06,1.3897273965001726e-05,7.903103782696137e-05,6.221231975050932e-06,0.08956730799999946
4.987211538,2.586533840410395e-05,4.233735903809409e-06,4.449987118445197e-06,1.3889821027811976e-05,7.923438256108162e-05,6.229260568510398e-06,0.09008653799999955
4.987730769,2.577667575743639e-05,4.2332569572663176e-06,4.4354409107334775e-06,1.386955258233502e-05,7.925814646249524e-05,6.201616429197544e-06,0.09060576899999884
4.98825,2.5738342171697446e-05,4.229642812719725e-06,4.424253882473159e-06,1.3850576108762092e-05,7.901883120970918e-05,6.144499896345644e-06,0.09112499999999901
4.988769231,2.5769763531338625e-05,4.223828165435101e-06,4.4054982337546685e-06,1.3844326524067828e-05,7.881948417372048e-05,6.12417306828047e-06,0.09164423099999919
4.989288462,2.5773640671700115e-05,4.220000409339178e-06,4.380646524564154e-06,1.3851565354199851e-05,7.876437951949282e-05,6.124706393312793e-06,0.09216346199999936
4.989807692,2.5756712196481875e-05,4.241807540237391e-06,4.365981124172171e-06,1.3866684017614618e-05,7.873740985980284e-05,6.125054910304287e-06,0.09268269199999946
4.990326923,2.5740651694819404e-05,4.299596168263581e-06,4.370298699810116e-06,1.3890161792735308e-05,7.864107073932636e-05,6.123834345177437e-06,0.09320192299999874
4.990846154,2.5705760530010857e-05,4.364077360174153e-06,4.393718621179707e-06,1.393244691986153e-05,7.836028958814535e-05,6.106302332567471e-06,0.09372115399999892
4.991365385,2.56380258778329e-05,4.40745234870436e-06,4.438653346535136e-06,1.40024952741881e-05,7.797467684753121e-05,6.092192073787114e-06,0.0942403849999991
4.991884615,2.564678208713099e-05,4.4291759488621214e-06,4.483171414363336e-06,1.4098456241007713e-05,7.771205420267607e-05,6.1066199849357696e-06,0.09475961499999919
4.992403846,2.5799267534884405e-05,4.439955197956505e-06,4.504889194325313e-06,1.4211000572614305e-05,7.75678016089387e-05,6.128716982157019e-06,0.09527884599999936
4.992923077,2.5867446498028412e-05,4.444653454220623e-06,4.522434774761846e-06,1.433180986871068e-05,7.750166884046208e-05,6.1365153537722574e-06,0.09579807699999954
4.993442308,2.5737213312936397e-05,4.44658738960644e-06,4.542259269861293e-06,1.4463641339247245e-05,7.756115547112123e-05,6.136803296174128e-06,0.09631730799999882
4.993961538,2.560997485232433e-05,4.441072989451833e-06,4.54528408964404e-06,1.462663643042256e-05,7.764705200397606e-05,6.140514519719404e-06,0.09683653799999892
4.994480769,2.5584680872530263e-05,4.4187627557263244e-06,4.529910323101205e-06,1.485338652148296e-05,7.767292832201222e-05,6.164806859944825e-06,0.09735576899999909
4.995,2.5584153194716747e-05,4.389504259634469e-06,4.511155309608125e-06,1.5179838596039776e-05,7.768326921294799e-05,6.18377444762467e-06,0.09787499999999927
4.995519231,2.559240795378645e-05,4.371668400989244e-06,4.499839809084756e-06,1.5639872381769556e-05,7.779365165373446e-05,6.177217649507154e-06,0.09839423099999944
4.996038462,2.560228818699445e-05,4.366420869083129e-06,4.495795799374478e-06,1.626164597986225e-05,7.815388933710608e-05,6.187372803297723e-06,0.09891346199999873
4.996557692,2.5586720677491227e-05,4.3660209537754005e-06,4.498322748758472e-06,1.7065866487299707e-05,7.854648801197946e-05,6.185732315066828e-06,0.09943269199999882
4.997076923,2.549683861841338e-05,4.370704447874073e-06,4.5011003784789e-06,1.8064872364551604e-05,7.8615680011713e-05,6.156192423169343e-06,0.099951922999999
4.997596154,2.5274256208210672e-05,4.372175894705789e-06,4.501085038060798e-06,1.9261057495735543e-05,7.852178987613473e-05,6.186800117486312e-06,0.10047115399999917
4.998115385,2.508085837638332e-05,4.354410420594469e-06,4.500723986055482e-06,2.065079401963283e-05,7.850240893628672e-05,6.256579560016635e-06,0.10099038499999935
4.998634615,2.5084468599439124e-05,4.322786371184035e-06,4.498213229481108e-06,2.222380812262671e-05,7.858752140491212e-05,6.2810725328847824e-06,0.10150961499999944
4.999153846,2.5138342855685092e-05,4.300116142175618e-06,4.500294691333827e-06,2.395659262938229e-05,7.876327711049262e-05,6.264797919250703e-06,0.10202884599999873
4.999673077,2.514005020326961e-05,4.295131953504825e-06,4.503601576607915e-06,2.58246725820848e-05,7.872192816475205e-05,6.208324224135359e-06,0.1025480769999989
5.000192308,2.5139537045333583e-05,4.295456175844155e-06,4.500694686050054e-06,2.781057733818845e-05,7.833403539376561e-05,6.15445728071077e-06,0.10306730799999908
5.000711538,2.5142165030931087e-05,4.294104116734155e-06,4.499786801784386e-06,2.9883493368798708e-05,7.804829291790968e-05,6.183473627618915e-06,0.10358653799999917
5.001230769,2.548928589515942e-05,4.2962469692440845e-06,4.504367959513976e-06,3.199218757184762e-05,7.809570482458038e-05,6.236323549773384e-06,0.10410576899999935
5.00175,2.6484867871285297e-05,4.301903986602295e-06,4.510190531399113e-06,3.4096766979323206e-05,7.825327423558788e-05,6.244592447108217e-06,0.10462499999999952
5.002269231,2.7583341385937894e-05,4.306692914479495e-06,4.510365795986434e-06,3.6202821404008894e-05,7.831898036585404e-05,6.248364969163844e-06,0.10514423099999881
5.002788462,2.821303126775945e-05,4.308525985231719e-06,4.507915515638976e-06,3.833220018395561e-05,7.821042840326035e-05,6.255314565308179e-06,0.10566346199999899
5.003307692,2.838743024608956e-05,4.307419325544231e-06,4.512191479420616e-06,4.0423725916090567e-05,7.805523362848999e-05,6.248166541117569e-06,0.10618269199999908
5.003826923,2.8306894325889216e-05,4.304790456409337e-06,4.5262540192078775e-06,4.227812668891458e-05,7.806418879271078e-05,6.245016834257625e-06,0.10670192299999925
5.004346154,2.8178093850912797e-05,4.300138850376861e-06,4.562269570855432e-06,4.366897997451099e-05,7.822573226293264e-05,6.2469106999436585e-06,0.10722115399999943
5.004865385,2.812661807287456e-05,4.294306558876667e-06,4.644578222743088e-06,4.452334290177599e-05,7.847597239274011e-05,6.246913103305805e-06,0.1077403849999996
5.005384615,2.813973964138631e-05,4.293580687612589e-06,4.743811353208783e-06,4.494950941529049e-05,7.878803600370954e-05,6.244252682731924e-06,0.10825961499999881
5.005903846,2.819530249154648e-05,4.290688976684513e-06,4.781557315779903e-06,4.511450914077866e-05,7.898200989661252e-05,6.2348970290578095e-06,0.10877884599999899
5.006423077,2.8352254557084225e-05,4.27486868326577e-06,4.757398582085573e-06,4.5148554397632025e-05,7.893093257009715e-05,6.235150885529912e-06,0.10929807699999916
5.006942308,2.872939682566905e-05,4.255477456968626e-06,4.720848833496975e-06,4.514634687795917e-05,7.873267760536357e-05,6.248209024530557e-06,0.10981730799999934
5.007461538,2.937281860705528e-05,4.241330369160536e-06,4.706925501357934e-06,4.522057037866699e-05,7.853802196937989e-05,6.255667519304331e-06,0.11033653799999943
5.007980769,3.009834158222499e-05,4.243736518338816e-06,4.722017236943645e-06,4.555273312715343e-05,7.843615191581953e-05,6.254332619875361e-06,0.1108557689999996
5.0085,3.063417602008991e-05,4.269670060684822e-06,4.7297703035912616e-06,4.637932211873612e-05,7.826100697740329e-05,6.237296962741815e-06,0.11137499999999889
5.009019231,3.0885670379431634e-05,4.2963748957789325e-06,4.7238067215570645e-06,4.786365178373232e-05,7.780271651371662e-05,6.214465976172639e-06,0.11189423099999907
5.009538462,3.0940055304163754e-05,4.304362695724423e-06,4.726238792875246e-06,4.994941065668525e-05,7.734587519703069e-05,6.211905253931422e-06,0.11241346199999924
5.010057692,3.094949067559678e-05,4.301988691093171e-06,4.736596375670625e-06,5.2387756207612905e-05,7.714988826221789e-05,6.201682436232985e-06,0.11293269199999934
5.010576923,3.096549017014738e-05,4.301672154366317e-06,4.7470532590921705e-06,5.4913325180788845e-05,7.70658659040887e-05,6.1751944031099575e-06,0.11345192299999951
5.011096154,3.093389700244807e-05,4.302187841498342e-06,4.760718216615357e-06,5.736122216627527e-05,7.697681418162249e-05,6.17669153546818e-06,0.1139711539999988
5.011615385,3.094160994221101e-05,4.299221868407365e-06,4.784952393544594e-06,5.9658044218068846e-05,7.670993951880908e-05,6.196861589042789e-06,0.11449038499999897
5.012134615,3.109041262125904e-05,4.296338450723053e-06,4.812754270951311e-06,6.177275259069043e-05,7.631083436484056e-05,6.205248968724137e-06,0.11500961499999907
5.012653846,3.1222276925964785e-05,4.29489325542899e-06,4.825591008020096e-06,6.368914395219017e-05,7.62043598369212e-05,6.185139386536959e-06,0.11552884599999924
5.013173077,3.12182624226138e-05,4.297013947414156e-06,4.822755503408654e-06,6.539586106644066e-05,7.636085386726011e-05,6.1047165281557135e-06,0.11604807699999942
5.013692308,3.119048404085846e-05,4.299608257539958e-06,4.816882703209418e-06,6.68803608510017e-05,7.646040098535889e-05,5.999772741494744e-06,0.11656730799999959
5.014211538,3.119511089987175e-05,4.287634741881212e-06,4.811150930278102e-06,6.813204591726561e-05,7.64976500453692e-05,5.963291464506152e-06,0.1170865379999988
5.014730769,3.119556508037807e-05,4.275170363051848e-06,4.807511707455448e-06,6.915974552154046e-05,7.65015977295862e-05,5.9986385946152505e-06,0.11760576899999897
5.01525,3.116068480354779e-05,4.285644034455173e-06,4.809888022639889e-06,7.000390011873987e-05,7.657519030285409e-05,6.035149504543721e-06,0.11812499999999915
5.015769231,3.106066679840977e-05,4.297083535049922e-06,4.813884420187992e-06,7.071932133822922e-05,7.681097945972444e-05,6.047041086375823e-06,0.11864423099999932
5.016288462,3.0963114253658965e-05,4.295570253721553e-06,4.809889807107617e-06,7.1340600456505e-05,7.696557754553662e-05,6.048224590656895e-06,0.1191634619999995
5.016807692,3.0931984760840024e-05,4.295412487412864e-06,4.786564724467218e-06,7.186551796286432e-05,7.695123638476954e-05,6.061817335506532e-06,0.11968269199999959
5.017326923,3.0932039496299814e-05,4.296046722422865e-06,4.754884968836279e-06,7.227649454382729e-05,7.698274075987467e-05,6.139748336681521e-06,0.12020192299999888
5.017846154,3.094946496561871e-05,4.297449713893048e-06,4.741280080668466e-06,7.257505861925092e-05,7.71015964051502e-05,6.218317679329925e-06,0.12072115399999905
5.018365385,3.09494145369776e-05,4.293669403824347e-06,4.7412438670546815e-06,7.278512222377044e-05,7.718631435354302e-05,6.21637046404587e-06,0.12124038499999923
5.018884615,3.08725046698316e-05,4.2854687844172765e-06,4.735784435463729e-06,7.293077239881186e-05,7.717429489122453e-05,6.399550640961892e-06,0.12175961499999932
5.019403846,3.075963128435136e-05,4.2888719984656665e-06,4.740032369696712e-06,7.302441897923977e-05,7.709312656909341e-05,6.840775880926505e-06,0.1222788459999995
5.019923077,3.06827666540256e-05,4.283683487024879e-06,4.779753593446474e-06,7.307440025685226e-05,7.703066940207777e-05,7.042123032213621e-06,0.12279807699999878
5.020442308,3.06887973474088e-05,4.262249948400803e-06,4.816996659773123e-06,7.309405679540169e-05,7.688579386903195e-05,7.059622468618521e-06,0.12331730799999896
5.020961538,3.0808116663489864e-05,4.250344995952671e-06,4.819752561142854e-06,7.309842040007015e-05,7.649355519053255e-05,7.738412096324046e-06,0.12383653799999905
5.021480769,3.09690356418102e-05,4.24922883174688e-06,4.8323727229747685e-06,7.30977424941387e-05,7.613241541739925e-05,9.068435103193983e-06,0.12435576899999923
5.022,3.108313030466576e-05,4.248697643204119e-06,4.865512073946546e-06,7.309793575629151e-05,7.604806094459437e-05,1.020456578233971e-05,0.1248749999999994
5.022519231,3.112671276800856e-05,4.245240249754417e-06,4.884968713266174e-06,7.310297625027979e-05,7.597544253796771e-05,1.0840104233771248e-05,0.12539423099999958
5.023038462,3.1118572320690964e-05,4.24054911466032e-06,4.886690478360828e-06,7.311626756460607e-05,7.576884870189912e-05,1.1187074776388243e-05,0.12591346199999887
5.023557692,3.116254416967598e-05,4.238685161925218e-06,4.881730900735935e-06,7.314218134104098e-05,7.539890509079045e-05,1.144073829980129e-05,0.12643269199999896
5.024076923,3.122233425677609e-05,4.238741170314364e-06,4.874581835628308e-06,7.318535135087592e-05,7.491882470130259e-05,1.1658647015543e-05,0.12695192299999913
5.024596154,3.114514845329782e-05,4.238796615255306e-06,4.868365521022501e-06,7.324853726408397e-05,7.479368564955275e-05,1.181412701080588e-05,0.1274711539999993
5.025115385,3.1053164507473543e-05,4.241110428523357e-06,4.865089804037389e-06,7.333375479902218e-05,7.503931509394734e-05,1.1871061668071147e-05,0.12799038499999948
5.025634615,3.106305416255964e-05,4.245733642763151e-06,4.864494425012387e-06,7.34458978942763e-05,7.516316208511764e-05,1.1867878323410517e-05,0.12850961499999958
5.026153846,3.103592159407706e-05,4.244044007046652e-06,4.865587471224762e-06,7.359209552324129e-05,7.514405941443845e-05,1.1859765472603902e-05,0.12902884599999886
5.026673077,3.0990694580222026e-05,4.232476912578003e-06,4.865801769182748e-06,7.377448913367412e-05,7.513850503350602e-05,1.1858675662811135e-05,0.12954807699999904
5.027192308,3.0999059370959835e-05,4.220587976670293e-06,4.868171966192374e-06,7.398356167700115e-05,7.515067334937579e-05,1.1862644103512794e-05,0.13006730799999922
5.027711538,3.095086602677784e-05,4.21434523864292e-06,4.883939921301668e-06,7.42025575135912e-05,7.516847270029776e-05,1.192758092220979e-05,0.1305865379999993
5.028230769,3.087195271447189e-05,4.211645962777786e-06,4.901771632230998e-06,7.442133133389314e-05,7.500360869592682e-05,1.2120720621740735e-05,0.13110576899999948
5.02875,3.085510227917191e-05,4.210914408788425e-06,4.902160228081228e-06,7.46416768385355e-05,7.467863473697264e-05,1.2347539239994077e-05,0.13162499999999877
5.029269231,3.0858213600571104e-05,4.210408696741564e-06,4.911857477684263e-06,7.486891926896836e-05,7.450639970106636e-05,1.2465739354685756e-05,0.13214423099999895
5.029788462,3.0858744675226256e-05,4.209862843422428e-06,4.955240836016939e-06,7.510483328617317e-05,7.449181234035965e-05,1.2493379490206365e-05,0.13266346199999912
5.030307692,3.082760045412568e-05,4.209872567497945e-06,4.998023026887782e-06,7.534770091173648e-05,7.449176925901603e-05,1.2504100240361004e-05,0.13318269199999921
5.030826923,3.0741024758022166e-05,4.2066039926328045e-06,5.010523583318154e-06,7.559405894639289e-05,7.445969026803429e-05,1.2547809019504736e-05,0.1337019229999994
5.031346154,3.067254001791089e-05,4.195571895605051e-06,5.008415831078357e-06,7.584012613175941e-05,7.431148845684245e-05,1.2714309441578697e-05,0.13422115399999957
5.031865385,3.065684062607676e-05,4.175303521577507e-06,5.005333020503306e-06,7.608189027695764e-05,7.409423373296107e-05,1.3023913077921496e-05,0.13474038499999885
5.032384615,3.067204280179379e-05,4.154153339121256e-06,5.000413040571083e-06,7.631585574663855e-05,7.399162426618518e-05,1.331808216979034e-05,0.13525961499999894
5.032903846,3.0723525459269904e-05,4.145803005976884e-06,4.999190150395306e-06,7.65416624187659e-05,7.404365342764779e-05,1.345276583639692e-05,0.13577884599999912
5.033423077,3.076598823838643e-05,4.145634900889211e-06,4.999931463202524e-06,7.676160340198224e-05,7.423970661521597e-05,1.3471663923303028e-05,0.1362980769999993
5.033942308,3.0768265368663764e-05,4.145401754126747e-06,4.99761175533633e-06,7.697687670213204e-05,7.450546068797166e-05,1.347164873796832e-05,0.13681730799999947
5.034461538,3.076971903439995e-05,4.146070002067325e-06,4.995697946176244e-06,7.718547395010419e-05,7.462843599969942e-05,1.3469038157502615e-05,0.13733653799999956
5.034980769,3.075238317791576e-05,4.145292249437533e-06,4.992417735143583e-06,7.738388030447528e-05,7.462543257730088e-05,1.346252669817629e-05,0.13785576899999885
5.0355,3.077119208828421e-05,4.143249625654122e-06,4.989081598523878e-06,7.75692473406854e-05,7.462256972756546e-05,1.3454933399295386e-05,0.13837499999999903
5.036019231,3.0876912728513e-05,4.143738329890765e-06,4.995598051917238e-06,7.773811472048517e-05,7.465746713502619e-05,1.3476059239540844e-05,0.1388942309999992
5.036538462,3.091671715197249e-05,4.147092838542053e-06,5.005861802199238e-06,7.788434298756633e-05,7.490055673046441e-05,1.368955594733547e-05,0.13941346199999938
5.037057692,3.08771382064024e-05,4.147080878648793e-06,4.996317197606652e-06,7.800151190165736e-05,7.521798164995888e-05,1.4158041527571757e-05,0.13993269199999947
5.037576923,3.087603960115843e-05,4.13799872714935e-06,4.979189911247301e-06,7.808850546426108e-05,7.525712714349364e-05,1.4580992548823016e-05,0.14045192299999876
5.038096154,3.088300589990386e-05,4.115278997922582e-06,4.9844120562247074e-06,7.815033529747214e-05,7.516895117148266e-05,1.4709630217216672e-05,0.14097115399999893
5.038615385,3.088532211927114e-05,4.084416187753715e-06,4.999434820667059e-06,7.81935495306139e-05,7.51806432392544e-05,1.4711250996862494e-05,0.1414903849999991
5.039134615,3.088153302833916e-05,4.061794644745771e-06,5.015891764391338e-06,7.822327876808999e-05,7.529935297528669e-05,1.48347689322227e-05,0.1420096149999992
5.039653846,3.0814663658623764e-05,4.048294541018924e-06,5.000187276787173e-06,7.824252575101121e-05,7.553635784269194e-05,1.5049367174668871e-05,0.14252884599999938
5.040173077,3.075178298353124e-05,4.03416994497891e-06,4.9056313387266815e-06,7.825301033730214e-05,7.560243092728763e-05,1.5222108137193584e-05,0.14304807699999955
5.040692308,3.076462602816584e-05,4.011899194603781e-06,4.8014527715581655e-06,7.825714815700864e-05,7.534022658994209e-05,1.5335805330839597e-05,0.14356730799999884
5.041211538,3.078731607981011e-05,3.98492009294237e-06,4.769310568765119e-06,7.825778985530541e-05,7.525064911093141e-05,1.542929964395655e-05,0.14408653799999893
5.041730769,3.0789549334832146e-05,3.971713996132168e-06,4.788589265292085e-06,7.825792121059327e-05,7.558158900797332e-05,1.550211785367824e-05,0.1446057689999991
5.04225,3.0785002906440216e-05,3.988422299800846e-06,4.8259552232489455e-06,7.826126301591157e-05,7.599623224223103e-05,1.5520790446777206e-05,0.14512499999999928
5.042769231,3.076117855232296e-05,4.030873228586524e-06,4.875952486170181e-06,7.826991578687337e-05,7.62752894116761e-05,1.553026812833229e-05,0.14564423099999946
5.043288462,3.074784897911198e-05,4.073515923084549e-06,4.930672938404036e-06,7.828226117908473e-05,7.640300509603405e-05,1.5630492453939143e-05,0.14616346199999875
5.043807692,3.074501456576287e-05,4.096107528154722e-06,4.963522801695505e-06,7.829544915107252e-05,7.650631246518761e-05,1.575472173293477e-05,0.14668269199999884
5.044326923,3.0697943775958284e-05,4.100100564740033e-06,4.969042026352666e-06,7.830856060128428e-05,7.671590745796569e-05,1.5775185091595063e-05,0.147201922999999
5.044846154,3.0662000884084315e-05,4.0979565507932e-06,4.967665468776199e-06,7.832353397010103e-05,7.696209132173874e-05,1.580869935790167e-05,0.1477211539999992
5.045365385,3.0692547349599466e-05,4.098034237580113e-06,4.966000617022053e-06,7.834351474978249e-05,7.722769321256953e-05,1.6021853695477246e-05,0.14824038499999936
5.045884615,3.071482658742493e-05,4.100581928983374e-06,4.960419053313274e-06,7.836854501528421e-05,7.750942909483318e-05,1.6326375494999446e-05,0.14875961499999946
5.046403846,3.071211545362921e-05,4.108860263552791e-06,4.9460869008750345e-06,7.839522735351883e-05,7.758477009789204e-05,1.661194549108413e-05,0.14927884599999874
5.046923077,3.070083993882332e-05,4.128126276781262e-06,4.9427953473887725e-06,7.842238353227841e-05,7.735029982457677e-05,1.6970929356299418e-05,0.14979807699999892
5.047442308,3.066142782073136e-05,4.149180757666227e-06,4.9575966274596335e-06,7.8453609220729e-05,7.696077877887298e-05,1.763576165283313e-05,0.1503173079999991
5.047961538,3.06015295071044e-05,4.159475622740767e-06,4.964433808912938e-06,7.849262033251963e-05,7.652892431297247e-05,1.863164025490792e-05,0.1508365379999992
5.048480769,3.049966341826785e-05,4.165818687398208e-06,4.963548335384705e-06,7.85346088311487e-05,7.615601261703665e-05,1.940747659498956e-05,0.15135576899999936
5.049,3.046316250548201e-05,4.183852923601541e-06,4.942548562188769e-06,7.856653897886445e-05,7.590202341193083e-05,1.956107913686014e-05,0.15187499999999954
5.049519231,3.068706088581098e-05,4.2251881377285824e-06,4.905237533650876e-06,7.858231368720071e-05,7.564283915926927e-05,1.9639700198739446e-05,0.15239423099999883
5.050038462,3.102247232002037e-05,4.285946305998677e-06,4.90069996878575e-06,7.858819375181e-05,7.541559312994456e-05,2.0338928751482548e-05,0.152913461999999
5.050557692,3.1213017129591745e-05,4.341391175387111e-06,4.925466152639002e-06,7.859200863298312e-05,7.536922073719786e-05,2.1427061539465567e-05,0.1534326919999991
5.051076923,3.125685229678491e-05,4.3774863570720295e-06,4.950292569521153e-06,7.859800453396917e-05,7.550479004381154e-05,2.224638966183471e-05,0.15395192299999927
5.051596154,3.1208648542481386e-05,4.397169011313909e-06,4.973731557051252e-06,7.860676619181735e-05,7.574136408831071e-05,2.255385294998347e-05,0.15447115399999944
5.052115385,3.117034141106676e-05,4.393047481329123e-06,4.984495979265432e-06,7.861538075863264e-05,7.576674305909148e-05,2.2569724366858224e-05,0.15499038499999873
5.052634615,3.122558499381036e-05,4.3434455227972346e-06,4.977183180195925e-06,7.862170935089324e-05,7.549707427414724e-05,2.258257571032975e-05,0.15550961499999882
5.053153846,3.127137880374021e-05,4.261021600729693e-06,4.9740705934372425e-06,7.862630464995973e-05,7.53507322792374e-05,2.2631075690330537e-05,0.156028845999999
5.053673077,3.1271945027061264e-05,4.204348794358425e-06,4.978946268067868e-06,7.863035329791329e-05,7.537515477787373e-05,2.264647548966102e-05,0.15654807699999918
5.054192308,3.127902083816825e-05,4.192831898433944e-06,4.970540819167268e-06,7.86343385357673e-05,7.537264682340949e-05,2.264106086795116e-05,0.15706730799999935
5.054711538,3.1280870997110074e-05,4.195999282790793e-06,4.964294811018143e-06,7.86373289648731e-05,7.549365118137335e-05,2.265466308602276e-05,0.15758653799999944
5.055230769,3.128076785664713e-05,4.199437870228532e-06,5.007095784168184e-06,7.863796102842497e-05,7.568853919728202e-05,2.276715688606568e-05,0.15810576899999873
5.05575,3.122072209090033e-05,4.202093194508624e-06,5.089386908893964e-06,7.863681208507881e-05,7.576737786025523e-05,2.2946015422821074e-05,0.1586249999999989
5.056269231,3.109269399715383e-05,4.2004389431937935e-06,5.155988822413561e-06,7.863616276144868e-05,7.578233417124813e-05,2.302918133391448e-05,0.15914423099999908
5.056788462,3.104553511658992e-05,4.199900636850135e-06,5.190564597206485e-06,7.86377757512047e-05,7.569450007797053e-05,2.3024744992172277e-05,0.15966346199999926
5.057307692,3.110761398432456e-05,4.210936481596168e-06,5.2081824994125e-06,7.864224401168104e-05,7.549088111506388e-05,2.3026488189572825e-05,0.16018269199999935
5.057826923,3.12402545687632e-05,4.245247248479598e-06,5.214735812721605e-06,7.864935353918451e-05,7.533657113307447e-05,2.3025332265685527e-05,0.16070192299999952
5.058346154,3.144613094037641e-05,4.305690297239957e-06,5.208378735684584e-06,7.865826560114686e-05,7.528374586281628e-05,2.3057127196584503e-05,0.1612211539999988
5.058865385,3.160111460051093e-05,4.369108584238321e-06,5.2190525935457205e-06,7.866800803473533e-05,7.52649642323808e-05,2.3219747887192357e-05,0.161740384999999
5.059384615,3.1604946577774264e-05,4.407373849675942e-06,5.28353346776634e-06,7.867801112545488e-05,7.523511661927212e-05,2.344662767144128e-05,0.16225961499999908
5.059903846,3.155141048894044e-05,4.419387704241996e-06,5.360119883116259e-06,7.868855523542227e-05,7.521475174146785e-05,2.356320475726592e-05,0.16277884599999926
5.060423077,3.1588975004850365e-05,4.42155099326496e-06,5.394624343697333e-06,7.870089887310324e-05,7.52644093662052e-05,2.35606797612539e-05,0.16329807699999943
5.060942308,3.186509434479978e-05,4.422011735961648e-06,5.3968153550959846e-06,7.871619150073368e-05,7.521540758111303e-05,2.3556559247673337e-05,0.16381730799999872
5.061461538,3.236911486065148e-05,4.417712119310955e-06,5.394397661831064e-06,7.873321106484492e-05,7.491205786875607e-05,2.360162565337052e-05,0.1643365379999988
5.061980769,3.280490388402822e-05,4.403184333935683e-06,5.40972277605794e-06,7.874783839694816e-05,7.468117204607002e-05,2.368552843206032e-05,0.164855768999999
5.0625,3.3009183170787574e-05,4.39205898922657e-06,5.432874546806748e-06,7.875715704534448e-05,7.466282796637723e-05,2.3809936398343748e-05,0.16537499999999916
5.063019231,3.3081361750768525e-05,4.424018779589546e-06,5.438819491294336e-06,7.876332083903875e-05,7.460260010067659e-05,2.398930066978256e-05,0.16589423099999934
5.063538462,3.309920254983184e-05,4.512682491730666e-06,5.4421860493851085e-06,7.876991880264809e-05,7.452524591647505e-05,2.4201443239213044e-05,0.1664134619999995
5.064057692,3.31816707741678e-05,4.6062949190182e-06,5.454145683685915e-06,7.87772665587399e-05,7.43326564098238e-05,2.437150195667933e-05,0.1669326919999996
5.064576923,3.332670560019061e-05,4.645275760268457e-06,5.469817553773168e-06,7.878498082189713e-05,7.391430323173968e-05,2.4456158307406115e-05,0.1674519229999989
5.065096154,3.327985321007712e-05,4.628828722225719e-06,5.485291014562388e-06,7.879316469514583e-05,7.366993788150587e-05,2.4494191107111398e-05,0.16797115399999907
5.065615385,3.3100394647559835e-05,4.598536039162997e-06,5.489285007791406e-06,7.880110739666035e-05,7.367282466304869e-05,2.4534258897271567e-05,0.16849038499999924
5.066134615,3.315392579196723e-05,4.580210972911429e-06,5.489392228750479e-06,7.880930738583396e-05,7.36568453095251e-05,2.4588895902187305e-05,0.16900961499999934
5.066653846,3.339240456344608e-05,4.570257357426707e-06,5.485624508939328e-06,7.881866002689604e-05,7.367144018998215e-05,2.46524204748368e-05,0.1695288459999995
5.067173077,3.350549671646319e-05,4.561868979623479e-06,5.468554853637999e-06,7.88291817644548e-05,7.372091887343758e-05,2.4705564040383757e-05,0.1700480769999988
5.067692308,3.348099991086729e-05,4.554350357621046e-06,5.46044515290568e-06,7.884051106105303e-05,7.372262107722209e-05,2.473780141426336e-05,0.17056730799999897
5.068211538,3.336583270934012e-05,4.55628829412699e-06,5.459686103369346e-06,7.885055964830015e-05,7.366057957930085e-05,2.4763958058955903e-05,0.17108653799999907
5.068730769,3.3142157526729225e-05,4.576955976589695e-06,5.448445980041415e-06,7.885638403869747e-05,7.341291289746528e-05,2.4802955739437703e-05,0.17160576899999924
5.06925,3.306981547363938e-05,4.603210135759749e-06,5.443153121612868e-06,7.88565043385723e-05,7.30790812638212e-05,2.487216419353825e-05,0.17212499999999942
5.069769231,3.3386213834236026e-05,4.612512846229978e-06,5.442632100183155e-06,7.885151701942418e-05,7.293864295345756e-05,2.496553003505198e-05,0.1726442309999996
5.070288462,3.3924301990147694e-05,4.606990946684121e-06,5.438335562303069e-06,7.884376402681297e-05,7.297087766997492e-05,2.504628931976484e-05,0.17316346199999888
5.070807692,3.441044426524234e-05,4.599984733263198e-06,5.4405584431061e-06,7.88356913085213e-05,7.306174861720273e-05,2.510046232286818e-05,0.17368269199999897
5.071326923,3.474861212580899e-05,4.593248857708651e-06,5.43626426207092e-06,7.882813198787469e-05,7.313714919184514e-05,2.5135283126807263e-05,0.17420192299999915
5.071846154,3.500974972210836e-05,4.58849308555164e-06,5.423475590921495e-06,7.88207404469441e-05,7.308446890991333e-05,2.5149894817119963e-05,0.17472115399999932
5.072365385,3.531206195971534e-05,4.590555822421274e-06,5.418569754773025e-06,7.88130185447049e-05,7.300510257410626e-05,2.515116056871906e-05,0.1752403849999995
5.072884615,3.5705007442988294e-05,4.597249002972833e-06,5.418464030093895e-06,7.88042122569007e-05,7.311989039548457e-05,2.515085381305336e-05,0.1757596149999996
5.073403846,3.607639618691522e-05,4.602478952660872e-06,5.418813555515581e-06,7.879379813651253e-05,7.349438900178751e-05,2.515132682152125e-05,0.17627884599999888
5.073923077,3.622195290372685e-05,4.6044619956757925e-06,5.41527451911153e-06,7.878181677993366e-05,7.415870445083658e-05,2.515583300579207e-05,0.17679807699999905
5.074442308,3.6176915774100514e-05,4.604821449286231e-06,5.412414920240716e-06,7.876898525729218e-05,7.498771379035995e-05,2.516877114880004e-05,0.17731730799999923
5.074961538,3.615540038664221e-05,4.605267741499724e-06,5.412568831213979e-06,7.875777209171251e-05,7.565727758608222e-05,2.51799695432072e-05,0.17783653799999932
5.075480769,3.615648668152448e-05,4.608139150697978e-06,5.412907756709833e-06,7.875108001548593e-05,7.60848112014424e-05,2.518098195582647e-05,0.1783557689999995
5.076,3.611531621935864e-05,4.616022468845318e-06,5.421560695660395e-06,7.874973280161353e-05,7.65093542667032e-05,2.517821512060092e-05,0.17887499999999878
5.076519231,3.597767390833188e-05,4.632405715048839e-06,5.431420582242363e-06,7.87522287774255e-05,7.729833316754762e-05,2.5173643296601373e-05,0.17939423099999896
5.077038462,3.570478309507651e-05,4.661578401424205e-06,5.433702492206173e-06,7.875555365408185e-05,7.871695679562963e-05,2.516848919248057e-05,0.17991346199999914
5.077557692,3.5471118400813364e-05,4.696643579872125e-06,5.434282449471346e-06,7.875708959100202e-05,8.038327807243111e-05,2.516548653839165e-05,0.18043269199999923
5.078076923,3.5385327285614674e-05,4.718314028955221e-06,5.445835619951948e-06,7.875663127271942e-05,8.164003058604842e-05,2.5170697478613705e-05,0.1809519229999994
5.078596154,3.5374951386782544e-05,4.72148526477534e-06,5.472182932136822e-06,7.875558147672639e-05,8.248804529203785e-05,2.519261270184565e-05,0.18147115399999958
5.079115385,3.53784316994503e-05,4.710466614234579e-06,5.49678609603614e-06,7.875473203658224e-05,8.329797682073248e-05,2.5211807873094583e-05,0.18199038499999887
5.079634615,3.541781154292062e-05,4.685250369283062e-06,5.5133686258766965e-06,7.87539890686453e-05,8.430174991227746e-05,2.520968542439892e-05,0.18250961499999896
5.080153846,3.549756468220179e-05,4.6606361914015965e-06,5.5088100792917575e-06,7.875373844655974e-05,8.545700050112238e-05,2.520360848836981e-05,0.18302884599999913
5.080673077,3.558167332319663e-05,4.647899404187947e-06,5.47352074676553e-06,7.875605584671014e-05,8.620901611859058e-05,2.5202199580203902e-05,0.1835480769999993
5.081192308,3.5669512013766136e-05,4.648543157634283e-06,5.4465483131291095e-06,7.876274749975844e-05,8.622166845617769e-05,2.520151270255683e-05,0.18406730799999949
5.081711538,3.576306264222245e-05,4.663738373711643e-06,5.446686764008184e-06,7.877194236561413e-05,8.600606039562515e-05,2.5202632296418996e-05,0.18458653799999958
5.082230769,3.585595162758566e-05,4.67962228389048e-06,5.446233653376227e-06,7.878001814804141e-05,8.595252646128828e-05,2.519777797670702e-05,0.18510576899999887
5.08275,3.596116478771368e-05,4.686877737494291e-06,5.440775502863734e-06,7.878522795322761e-05,8.595220164606762e-05,2.5191053175496524e-05,0.18562499999999904
5.083269231,3.61228172992551e-05,4.690090324803196e-06,5.446314727412768e-06,7.878823025536812e-05,8.59488576310255e-05,2.519161429766204e-05,0.18614423099999922
5.083788462,3.641969044732284e-05,4.691666819008996e-06,5.4612651646704376e-06,7.879140378510503e-05,8.589682145545211e-05,2.5188771360859165e-05,0.1866634619999994
5.084307692,3.684666495020333e-05,4.68666430963819e-06,5.473491276996408e-06,7.87965057759507e-05,8.583964364634995e-05,2.518052210791872e-05,0.18718269199999948
5.084826923,3.726631524234525e-05,4.67585835874092e-06,5.474899886057469e-06,7.8803152722566e-05,8.590212718226742e-05,2.517674267743961e-05,0.18770192299999877
5.085346154,3.755816311038044e-05,4.67162267211536e-06,5.470230300311962e-06,7.881056899881042e-05,8.601994077488255e-05,2.517663751916731e-05,0.18822115399999895
5.085865385,3.76827038081742e-05,4.673153826932954e-06,5.472541496878884e-06,7.881923168920725e-05,8.616100567752298e-05,2.517638525774068e-05,0.18874038499999912
5.086384615,3.76851160245177e-05,4.672908690332506e-06,5.465768871658432e-06,7.883081710935696e-05,8.643678174649665e-05,2.5176430048906826e-05,0.18925961499999922
5.086903846,3.772620980553124e-05,4.672742867378218e-06,5.426162410050828e-06,7.884728814245361e-05,8.675030024797093e-05,2.5176300687127115e-05,0.1897788459999994
5.087423077,3.786239305029297e-05,4.67288322370089e-06,5.398216557884516e-06,7.886909375141128e-05,8.687520381656772e-05,2.5178184636973583e-05,0.19029807699999957
5.087942308,3.790394317289224e-05,4.672505548998659e-06,5.420383714273677e-06,7.889309573906367e-05,8.687257450788907e-05,2.518549703386553e-05,0.19081730799999885
5.088461538,3.780079855352635e-05,4.672297896682233e-06,5.432977598147605e-06,7.891294063320386e-05,8.711464865177253e-05,2.519151400038896e-05,0.19133653799999895
5.088980769,3.7727386279413966e-05,4.671849504353311e-06,5.392869267248844e-06,7.892430916735027e-05,8.803124886105469e-05,2.5191543649134472e-05,0.19185576899999912
5.0895,3.783817930065596e-05,4.667650782461971e-06,5.340615005411907e-06,7.892822723691113e-05,8.954637218616618e-05,2.5190903436713004e-05,0.1923749999999993
5.090019231,3.805445873102148e-05,4.663798951585486e-06,5.334358578263627e-06,7.89277092483306e-05,9.0959376627146e-05,2.5190015067999763e-05,0.19289423099999947
5.090538462,3.813238364297669e-05,4.663779373406668e-06,5.3525256679187496e-06,7.892525692833853e-05,9.190062693519728e-05,2.5192024330401465e-05,0.19341346199999876
5.091057692,3.810547624146657e-05,4.656545892078249e-06,5.343871842929984e-06,7.892071052107288e-05,9.26213220361486e-05,2.5197963469871003e-05,0.19393269199999885
5.091576923,3.811192857443244e-05,4.643479053407805e-06,5.34489140705824e-06,7.891520242833565e-05,9.338616919794589e-05,2.519707823520789e-05,0.19445192299999903
5.092096154,3.804974175683199e-05,4.633459771501447e-06,5.358855431547394e-06,7.892024883141551e-05,9.418309821313348e-05,2.519167588253406e-05,0.1949711539999992
5.092615385,3.791789479233545e-05,4.625057845207547e-06,5.33171602230079e-06,7.894310295738184e-05,9.463552997077572e-05,2.519057062667257e-05,0.19549038499999938
5.093134615,3.7848403221695895e-05,4.611629776988343e-06,5.291661759077522e-06,7.897039349217307e-05,9.457244537573595e-05,2.519382301643373e-05,0.19600961499999947
5.093653846,3.782996181402875e-05,4.587857449831039e-06,5.291311992436279e-06,7.89865954494389e-05,9.463112747823794e-05,2.519890961598269e-05,0.19652884599999876
5.094173077,3.785318937214637e-05,4.565834435591215e-06,5.310428139574717e-06,7.899017576598605e-05,9.545126065143807e-05,2.519226002996468e-05,0.19704807699999893
5.094692308,3.793222075366325e-05,4.560731652953522e-06,5.3159408728290295e-06,7.89854986645771e-05,9.693650867789596e-05,2.5175462576384717e-05,0.1975673079999991
5.095211538,3.7974192511637314e-05,4.564377559979643e-06,5.314688877154337e-06,7.897486524992697e-05,9.874815658158244e-05,2.5172935365416037e-05,0.1980865379999992
5.095730769,3.794619356933618e-05,4.565329441262834e-06,5.315047129457216e-06,7.895872984398875e-05,0.0001007738799613,2.5179921592673625e-05,0.19860576899999938
5.09625,3.7941722125701e-05,4.565254543911787e-06,5.312903028646855e-06,7.893836970379093e-05,0.0001030600927433,2.518024187194303e-05,0.19912499999999955
5.096769231,3.796977300203572e-05,4.5672940496922176e-06,5.30842861757666e-06,7.891581991321501e-05,0.0001054256243181,2.5179899624681957e-05,0.19964423099999884
5.097288462,3.795347021155371e-05,4.5736336968709015e-06,5.300629158919285e-06,7.889110345494959e-05,0.0001073820963796,2.51784492051853e-05,0.20016346199999902
5.097807692,3.7885292606357086e-05,4.582776114840727e-06,5.292454661961198e-06,7.886227563769216e-05,0.0001086521038487,2.517368582491616e-05,0.2006826919999991
5.098326923,3.780245999424374e-05,4.590464432101801e-06,5.287008349959175e-06,7.882792056432711e-05,0.000109281823221,2.5172688344940985e-05,0.20120192299999928
5.098846154,3.772585354931258e-05,4.595190837502609e-06,5.280954493469288e-06,7.878882120076302e-05,0.0001094029963238,2.517747408287327e-05,0.20172115399999946
5.099365385,3.767195347542572e-05,4.59594785890682e-06,5.272058007490711e-06,7.874761750076932e-05,0.0001094460535233,2.520029730139588e-05,0.20224038499999875
5.099884615,3.7659320266680695e-05,4.59013492151145e-06,5.268534491596176e-06,7.870689901701318e-05,0.0001102123701326,2.526113423441745e-05,0.20275961499999884
5.100403846,3.766118578318792e-05,4.584775653286151e-06,5.270765498207345e-06,7.866779848688448e-05,0.0001124676298566,2.534995943831403e-05,0.203278845999999
5.100923077,3.760963722821002e-05,4.595285332340049e-06,5.268646577673977e-06,7.86302580089679e-05,0.0001169842887014,2.5443402417053975e-05,0.2037980769999992
5.101442308,3.752849653455763e-05,4.614730355659099e-06,5.267232075763646e-06,7.859400712154592e-05,0.0001249362496867,2.555051702417162e-05,0.20431730799999936
5.101961538,3.750311274706626e-05,4.629085107924888e-06,5.266597112972812e-06,7.855918775983458e-05,0.0001374246368143,2.5718599212935767e-05,0.20483653799999946
5.102480769,3.754143299686072e-05,4.63933941753232e-06,5.267750868186621e-06,7.85268076806941e-05,0.0001540093466762,2.600556526244532e-05,0.20535576899999874
5.103,3.766319524448442e-05,4.656260696922772e-06,5.280506545654082e-06,7.84982074532934e-05,0.000172328609382,2.6409778538508696e-05,0.20587499999999892
5.103519231,3.797057455303745e-05,4.703724196796336e-06,5.299962318630157e-06,7.847368091293417e-05,0.0001898671206528,2.6851882909828145e-05,0.2063942309999991
5.104038462,3.849955067934014e-05,4.777204551302115e-06,5.322607524936314e-06,7.845147513694579e-05,0.0002056090888845,2.7276482582965465e-05,0.20691346199999927
5.104557692,3.90509676586616e-05,4.83080959063757e-06,5.364599226694893e-06,7.842977129982191e-05,0.0002199180188452,2.771782209194908e-05,0.20743269199999936
5.105076923,3.9312541627338295e-05,4.840886358407291e-06,5.465891526725728e-06,7.84097096777418e-05,0.0002334788806015,2.8258147039660093e-05,0.20795192299999954
5.105596154,3.927016066927689e-05,4.828594019654997e-06,5.6374143330360775e-06,7.839384760474902e-05,0.0002463274043868,2.8951953738734877e-05,0.20847115399999883
5.106115385,3.922463689151393e-05,4.819736986095172e-06,5.803553597093655e-06,7.838391407807408e-05,0.0002575701757108,2.9745576979321197e-05,0.208990384999999
5.106634615,3.928167078178835e-05,4.826927680539518e-06,5.901265963735426e-06,7.838002442659491e-05,0.0002662307432145,3.0499904144179577e-05,0.2095096149999991
5.107153846,3.92930056083395e-05,4.849695457741903e-06,5.950711144492243e-06,7.837985198806891e-05,0.0002722212414409,3.113257642968039e-05,0.21002884599999927
5.107673077,3.925831395972784e-05,4.867796811862249e-06,5.988184220031425e-06,7.837945948331898e-05,0.0002761899616621,3.167234869060936e-05,0.21054807699999945
5.108192308,3.925563472361009e-05,4.864973005324209e-06,6.026406339180811e-06,7.837525535232771e-05,0.0002787902666597,3.219223251735678e-05,0.21106730799999873
5.108711538,3.927820600981481e-05,4.863127551123748e-06,6.053450156352971e-06,7.836668732332974e-05,0.0002803032642382,3.2727541885684016e-05,0.21158653799999882
5.109230769,3.952871535877865e-05,4.8873855714436406e-06,6.060559414623093e-06,7.835717757697946e-05,0.0002808101266483,3.32320355720196e-05,0.212105768999999
5.10975,4.03032522056765e-05,4.91275218426213e-06,6.059216655336263e-06,7.835092344601358e-05,0.000280765998061,3.362916837966744e-05,0.21262499999999918
5.110269231,4.141961569453754e-05,4.917381379598267e-06,6.058473511504313e-06,7.834872250492959e-05,0.0002811146391351,3.389138528234941e-05,0.21314423099999935
5.110788462,4.238203258728543e-05,4.918381119994562e-06,6.066427177526081e-06,7.834696694638483e-05,0.0002826850873993,3.404536475225018e-05,0.21366346199999953
5.111307692,4.29132482575471e-05,4.923475289827641e-06,6.085525307281268e-06,7.834253958968942e-05,0.0002858662166338,3.4137190922517564e-05,0.21418269199999873
5.111826923,4.304827052266768e-05,4.925597474063199e-06,6.1094410939620975e-06,7.833724960397995e-05,0.000290737508365,3.419596397265147e-05,0.2147019229999989
5.112346154,4.301550233351066e-05,4.92478040470634e-06,6.134755250312727e-06,7.833457429286927e-05,0.000297182716527,3.422737551430515e-05,0.21522115399999908
5.112865385,4.300288100454147e-05,4.927582432447285e-06,6.1535138175440536e-06,7.83351443603059e-05,0.0003050165964189,3.423995240243572e-05,0.21574038499999926
5.113384615,4.300488922117788e-05,4.936658232867186e-06,6.149167335750272e-06,7.833707622749551e-05,0.0003141396678044,3.424296746976193e-05,0.21625961499999935
5.113903846,4.298603440810335e-05,4.9506134311154334e-06,6.156057354794674e-06,7.833867416058426e-05,0.0003244879814131,3.424382713374771e-05,0.21677884599999953
5.114423077,4.297219839177574e-05,4.964084314101445e-06,6.27727671062106e-06,7.834042449040614e-05,0.0003356512150484,3.426539503579895e-05,0.2172980769999988
5.114942308,4.296504694804573e-05,4.95553354401602e-06,6.517190416623e-06,7.834429634478863e-05,0.0003465981891462,3.4332889294638745e-05,0.217817307999999
5.115461538,4.2984089637354926e-05,4.914213059632955e-06,6.745027821470213e-06,7.835074233922513e-05,0.0003561895331203,3.445436109458632e-05,0.21833653799999908
5.115980769,4.304980477845298e-05,4.863051960740385e-06,6.8826405913065085e-06,7.835688311220406e-05,0.0003640498331356,3.4627352696554266e-05,0.21885576899999926
5.1165,4.308370936619331e-05,4.825041625073103e-06,6.955457378951307e-06,7.835820226975364e-05,0.0003706843116958,3.4862754391218764e-05,0.21937499999999943
5.117019231,4.303684313770652e-05,4.802778300164356e-06,7.014277370718328e-06,7.835249245713368e-05,0.0003768364955202,3.519869469116444e-05,0.21989423099999872
5.117538462,4.294830233261441e-05,4.791795792332671e-06,7.081329800182504e-06,7.834137289565344e-05,0.000382842953253,3.567791286313553e-05,0.2204134619999989
5.118057692,4.286214356291268e-05,4.787472771921936e-06,7.138600336569584e-06,7.83272623339228e-05,0.0003884077091261,3.629275639539478e-05,0.220932691999999
5.118576923,4.2869598268250816e-05,4.7860897585638666e-06,7.161173009954297e-06,7.830984379105053e-05,0.0003930499797148,3.698056891521814e-05,0.22145192299999916
5.119096154,4.3008226330024125e-05,4.785759437780841e-06,7.1595724488191e-06,7.828508452292214e-05,0.000396732507266,3.770702237256188e-05,0.22197115399999934
5.119615385,4.317636991296126e-05,4.7832356187886135e-06,7.1588912460328e-06,7.824661280996294e-05,0.0003998216247377,3.852575909071145e-05,0.2224903849999995
5.120134615,4.329655975523995e-05,4.781592002978276e-06,7.156677321504156e-06,7.818757455311223e-05,0.0004026384366814,3.954957340786176e-05,0.22300961499999872
5.120653846,4.336679109531188e-05,4.782117723466268e-06,7.147165080093594e-06,7.810067490950838e-05,0.0004051553167617,4.082582502986761e-05,0.2235288459999989
5.121173077,4.342969296070156e-05,4.782639610139294e-06,7.138819729613559e-06,7.79774073712797e-05,0.0004070787131484,4.2233547664566455e-05,0.22404807699999907
5.121692308,4.348068316753921e-05,4.791829435514694e-06,7.135594145011986e-06,7.780845918249507e-05,0.0004083139618936,4.358648782972885e-05,0.22456730799999924
5.122211538,4.3448310561678914e-05,4.807708110948253e-06,7.1364752696603886e-06,7.758463595826925e-05,0.0004091233933655,4.48000905093201e-05,0.22508653799999934
5.122730769,4.341309621358667e-05,4.820930544192642e-06,7.139138250154196e-06,7.729699385467678e-05,0.0004098101620375,4.5916095944504056e-05,0.2256057689999995
5.12325,4.349306669946956e-05,4.831541136629375e-06,7.142961966750544e-06,7.693688315756044e-05,0.0004105383529925,4.702311940366741e-05,0.2261249999999988
5.123769231,4.362583560733131e-05,4.838710092493598e-06,7.144743224474447e-06,7.64972039221846e-05,0.000411307175384,4.8153204808371845e-05,0.22664423099999897
5.124288462,4.374584317810563e-05,4.842296260003309e-06,7.142538914915809e-06,7.597274340304619e-05,0.0004120033770243,4.925285073922257e-05,0.22716346199999915
5.124807692,4.381230086828768e-05,4.844776279703225e-06,7.140221854853769e-06,7.535812889765365e-05,0.0004125948256846,5.024962591678853e-05,0.22768269199999924
5.125326923,4.381160331420825e-05,4.85138415432402e-06,7.1393257900110345e-06,7.464785575460724e-05,0.0004131380849466,5.1092431820142745e-05,0.22820192299999942
5.125846154,4.386748911489038e-05,4.874872389317549e-06,7.1407447327276845e-06,7.384244376506848e-05,0.0004136482784414,5.175288991460394e-05,0.2287211539999996
5.126365385,4.378612984771962e-05,4.923708779253873e-06,7.157110786888208e-06,7.295365108150095e-05,0.0004141475232933,5.224208240211404e-05,0.22924038499999888
5.126884615,4.3226696946526e-05,4.989628950773868e-06,7.205742732967061e-06,7.19943498088855e-05,0.0004147530430439,5.260637438698903e-05,0.22975961499999897
5.127403846,4.25165496913181e-05,5.062528342173822e-06,7.267917786105913e-06,7.095929372273336e-05,0.0004156228043823,5.289445250762832e-05,0.23027884599999915
5.127923077,4.209991897487569e-05,5.142322609826691e-06,7.30459557480523e-06,6.983280826265283e-05,0.0004167685082271,5.3134678634443234e-05,0.23079807699999932
5.128442308,4.198647874599282e-05,5.2248231841229085e-06,7.312823455126912e-06,6.864391002339147e-05,0.0004178713596098,5.332758510969938e-05,0.2313173079999995
5.128961538,4.205478623707719e-05,5.288218238749904e-06,7.307667767606101e-06,6.751776382232825e-05,0.0004185185136452,5.346220967251382e-05,0.2318365379999996
5.129480769,4.2118152727921285e-05,5.317166719845412e-06,7.286502080152717e-06,6.662644717814827e-05,0.0004186747903227,5.354199453297698e-05,0.23235576899999888
5.13,4.2118813916789495e-05,5.321860170544471e-06,7.234283227691218e-06,6.605843354865311e-05,0.0004186244749396,5.358432318884405e-05,0.23287499999999905
5.130519231,4.212836951173285e-05,5.3114165607061904e-06,7.1701225741226e-06,6.576946282184129e-05,0.0004185949003618,5.360559974906282e-05,0.23339423099999923
5.131038462,4.210008002715615e-05,5.299363755681141e-06,7.140411440513303e-06,6.565719469838874e-05,0.000418698894468,5.36134788557728e-05,0.2339134619999994
5.131557692,4.200759465286068e-05,5.301746558247642e-06,7.137953067091487e-06,6.563543276788342e-05,0.0004190623048241,5.3613103324391865e-05,0.2344326919999995
5.132076923,4.18599594318824e-05,5.308454085698063e-06,7.138412142826514e-06,6.564066709067686e-05,0.0004199308951001,5.362279212735655e-05,0.23495192299999879
5.132596154,4.156368784447337e-05,5.307478136093706e-06,7.137595561358458e-06,6.559792572410534e-05,0.0004216559738783,5.366758136903112e-05,0.23547115399999896
5.133115385,4.1153691417062375e-05,5.293135093158604e-06,7.140522490678303e-06,6.538390491578652e-05,0.0004244374668865,5.3760646355091696e-05,0.23599038499999914
5.133634615,4.0859310639903337e-05,5.266250622472955e-06,7.151935530473325e-06,6.482660011301944e-05,0.0004281933595914,5.390804648245968e-05,0.23650961499999923
5.134153846,4.080370432263893e-05,5.246375913907906e-06,7.154477658012924e-06,6.37740485538585e-05,0.0004327639024041,5.412147670670773e-05,0.2370288459999994
5.134673077,4.0912344999647656e-05,5.2440444340460745e-06,7.1600462104371975e-06,6.219165137322198e-05,0.0004381072806415,5.4419564027516216e-05,0.23754807699999958
5.135192308,4.104850685156096e-05,5.248999450679491e-06,7.191122326435207e-06,6.018308436070382e-05,0.0004442780106577,5.482042909449448e-05,0.23806730799999887
5.135711538,4.113165162359706e-05,5.2528964507826565e-06,7.226840882946583e-06,5.790902630339088e-05,0.0004511762200175,5.533296340827889e-05,0.23858653799999896
5.136230769,4.117085806992342e-05,5.255320935628488e-06,7.246730082965228e-06,5.549923904011952e-05,0.000458386030529,5.595071824977416e-05,0.23910576899999914
5.13675,4.116246434036649e-05,5.258779374037831e-06,7.257220249775343e-06,5.303319409522876e-05,0.0004654803718584,5.664896019339954e-05,0.2396249999999993
5.137269231,4.1060691650371006e-05,5.266484962175811e-06,7.283820573077639e-06,5.056408458874094e-05,0.0004723439047917,5.739311606628359e-05,0.2401442309999995
5.137788462,4.091969681356266e-05,5.278145735349436e-06,7.364076277629562e-06,4.813670275358127e-05,0.0004790470022326,5.815612172236064e-05,0.24066346199999877
5.138307692,4.085641197661965e-05,5.287705332004647e-06,7.503349325002505e-06,4.579636745080896e-05,0.0004855687321647,5.892581129493482e-05,0.24118269199999887
5.138826923,4.085971050530128e-05,5.296549350280823e-06,7.66022054451513e-06,4.360095209543703e-05,0.00049171570579,5.969923937117332e-05,0.24170192299999904
5.139346154,4.086985618179479e-05,5.317429033887408e-06,7.798232401087585e-06,4.1617319307587374e-05,0.0004972998506345,6.047401607587282e-05,0.24222115399999922
5.139865385,4.087789805894977e-05,5.3560399914978885e-06,7.907656843679912e-06,3.9885062177177085e-05,0.0005022955005311,6.123826602701983e-05,0.2427403849999994
5.140384615,4.087478903199834e-05,5.415163310188109e-06,7.990642719746668e-06,3.838322030587101e-05,0.0005067239773933,6.196264219734596e-05,0.24325961499999949
5.140903846,4.090002341235536e-05,5.501306751987623e-06,8.048585028179351e-06,3.7049193989635245e-05,0.0005105480476101,6.260709942199975e-05,0.24377884599999877
5.141423077,4.095970334343839e-05,5.604170537807842e-06,8.077965865798609e-06,3.5840029778486855e-05,0.0005137922799616,6.315132651626533e-05,0.24429807699999895
5.141942308,4.0984285481695215e-05,5.705063744678672e-06,8.086810705830259e-06,3.4776708529327264e-05,0.0005166310373375,6.361418709865957e-05,0.24481730799999912
5.142461538,4.098333916679478e-05,5.80525080228774e-06,8.089868298658145e-06,3.391474060652646e-05,0.0005192805155552,6.402894508955278e-05,0.24533653799999922
5.142980769,4.098053086400178e-05,5.917541862262311e-06,8.094475193065052e-06,3.3271194447771084e-05,0.0005218162512466,6.441668545044189e-05,0.2458557689999994
5.1435,4.096294083567644e-05,6.0411431641103455e-06,8.103488462081369e-06,3.280919568557928e-05,0.0005240894138804,6.47615137905485e-05,0.24637499999999957
5.144019231,4.097730937748442e-05,6.158363783662482e-06,8.109326056608711e-06,3.248416444778568e-05,0.0005258645908182,6.500266835568869e-05,0.24689423099999885
5.144538462,4.103020386759451e-05,6.25263981641996e-06,8.101035967278991e-06,3.227306167907712e-05,0.0005270614553307,6.512684851050025e-05,0.24741346199999903
5.145057692,4.107657450904847e-05,6.321230358685001e-06,8.079780421872087e-06,3.2159796620560006e-05,0.0005278026639719,6.521359236535601e-05,0.24793269199999912
5.145576923,4.109925820924159e-05,6.36732781166452e-06,8.075415610568885e-06,3.2115040377145475e-05,0.0005282745125148,6.529022025333458e-05,0.2484519229999993
5.146096154,4.111544200932932e-05,6.394975519522941e-06,8.112381880110148e-06,3.210424627586796e-05,0.0005285753861527,6.527535506774684e-05,0.24897115399999947
5.146615385,4.131257880654135e-05,6.412944160367122e-06,8.178273680038071e-06,3.210407566368963e-05,0.0005286792452001,6.514625242561295e-05,0.24949038499999876
5.147134615,4.187518748971701e-05,6.429360881746802e-06,8.266083878903911e-06,3.2102419075867946e-05,0.0005286501131123,6.499755273978995e-05,0.25000961499999885
5.147653846,4.261195467255897e-05,6.447712670874516e-06,8.35723025568781e-06,3.209086104807969e-05,0.0005287477877256,6.490149761662375e-05,0.25052884599999903
5.148173077,4.319545532284814e-05,6.46864342323797e-06,8.423150543390778e-06,3.205999465346592e-05,0.0005291511844121,6.48486005902625e-05,0.2510480769999992
5.148692308,4.356354805110869e-05,6.491467236974887e-06,8.471638329522887e-06,3.199879091974104e-05,0.0005298324723491,6.480836323364263e-05,0.2515673079999994
5.149211538,4.3877182291288354e-05,6.514044634885838e-06,8.5338428421596e-06,3.1898115605910646e-05,0.0005307372182822,6.476823621614341e-05,0.25208653799999947
5.149730769,4.432889213231004e-05,6.531161275550231e-06,8.636885708994062e-06,3.1752404025883066e-05,0.0005319062501298,6.473946211953736e-05,0.25260576899999876
5.15025,4.490655744765356e-05,6.536158801524034e-06,8.7760208195617e-06,3.1555926835702504e-05,0.0005334891973062,6.4736398543939e-05,0.25312499999999893
5.150769231,4.535047464951343e-05,6.531703116355619e-06,8.919487992079922e-06,3.129579113664345e-05,0.0005356049060075,6.475742587252331e-05,0.2536442309999991
5.151288462,4.55400090131983e-05,6.5319966366949486e-06,9.048793056376908e-06,3.0951884630463164e-05,0.0005381940591332,6.47965064843694e-05,0.2541634619999993
5.151807692,4.558818729095946e-05,6.545811900158183e-06,9.17091199878144e-06,3.051472857626527e-05,0.0005411138879378,6.484819467872124e-05,0.2546826919999994
5.152326923,4.558766369182131e-05,6.568803794495664e-06,9.29536148070779e-06,3.000430696097844e-05,0.0005442205146443,6.490238103498135e-05,0.25520192299999955
5.152846154,4.557969244676414e-05,6.5956472169520025e-06,9.419756885603328e-06,2.9459472858705788e-05,0.0005473275926675,6.493828831691955e-05,0.25572115399999884
5.153365385,4.558356223570786e-05,6.625802218912347e-06,9.54679883848435e-06,2.890528281805656e-05,0.0005502816811202,6.494221886187326e-05,0.256240384999999
5.153884615,4.558466431511145e-05,6.65783105214106e-06,9.677134623171223e-06,2.833852625435932e-05,0.0005531009788523,6.494484669800014e-05,0.2567596149999991
5.154403846,4.558721942379401e-05,6.685630171700912e-06,9.784430384076788e-06,2.7743315180494617e-05,0.000555941417817,6.499515455341992e-05,0.2572788459999993
5.154923077,4.562730808247685e-05,6.70291600398624e-06,9.846729785160454e-06,2.711115522359821e-05,0.000558873339515,6.510068598256425e-05,0.25779807699999946
5.155442308,4.566925968607259e-05,6.711911831105226e-06,9.880476419804652e-06,2.644370982781981e-05,0.0005617022266382,6.522714397239444e-05,0.25831730799999875
5.155961538,4.5670102932906686e-05,6.720659853046215e-06,9.909808512032636e-06,2.5744776684769667e-05,0.0005641194513467,6.533272925790609e-05,0.25883653799999884
5.156480769,4.570845656103015e-05,6.732921407958599e-06,9.93838119598767e-06,2.5019668215397147e-05,0.000566030199423,6.539283681115712e-05,0.259355768999999
5.157,4.580052898030154e-05,6.74551723826121e-06,9.96684480104503e-06,2.4279653762645964e-05,0.0005676094060078,6.542088327666941e-05,0.2598749999999992
5.157519231,4.586252741321341e-05,6.754683529296844e-06,9.998017315376106e-06,2.3537617384882e-05,0.0005690639151774,6.546501021922097e-05,0.26039423099999937
5.158038462,4.5875617420191305e-05,6.762783477130719e-06,1.0027768283259937e-05,2.279829546396356e-05,0.000570418849481,6.555418279434601e-05,0.26091346199999954
5.158557692,4.590915627730495e-05,6.775838843833876e-06,1.0050997760038351e-05,2.205825927966946e-05,0.0005715058003818,6.566363918198845e-05,0.26143269199999875
5.159076923,4.5999743993397005e-05,6.792335386921677e-06,1.0062663203499848e-05,2.131665305085653e-05,0.0005721901940637,6.575828843940332e-05,0.2619519229999989
5.159596154,4.6069941321026825e-05,6.806548057387552e-06,1.0063067928220872e-05,2.0579393645884085e-05,0.0005725504127873,6.583318162760382e-05,0.2624711539999991
5.160115385,4.609583922379756e-05,6.818919255240047e-06,1.0062425221190984e-05,1.985096571317527e-05,0.0005727431381795,6.58972432359592e-05,0.26299038499999927
5.160634615,4.607965937954105e-05,6.831704326036359e-06,1.0064413821615254e-05,1.913513297134462e-05,0.0005728655693761,6.595903461508511e-05,0.26350961499999936
5.161153846,4.602435438738451e-05,6.847656350952586e-06,1.006417072754835e-05,1.8449621053200345e-05,0.0005729438679773,6.601614656328939e-05,0.26402884599999954
5.161673077,4.602538465676487e-05,6.873261246318042e-06,1.0064293540974816e-05,1.7831191594005403e-05,0.0005729423755733,6.603059014124937e-05,0.2645480769999988
5.162192308,4.607420198311701e-05,6.916278050837879e-06,1.0077918238471064e-05,1.7320723966042592e-05,0.0005728800349114,6.59786237890471e-05,0.265067307999999
5.162711538,4.608962554341831e-05,6.969578857608503e-06,1.0117667214407842e-05,1.6935387159986873e-05,0.0005728585457004,6.591920368289072e-05,0.2655865379999991
5.163230769,4.608877016057159e-05,7.009292515143581e-06,1.0177192120152802e-05,1.6658161550610673e-05,0.0005729194189485,6.591431825602613e-05,0.26610576899999927
5.16375,4.608678107315199e-05,7.023500994084615e-06,1.0232722591501557e-05,1.64602732500597e-05,0.0005730296175197,6.593375537270335e-05,0.26662499999999945
5.164269231,4.606961333049064e-05,7.024043615172628e-06,1.0272927726756288e-05,1.632132057501842e-05,0.0005731616975687,6.592423435522745e-05,0.26714423099999873
5.164788462,4.6047639867439566e-05,7.023987258780456e-06,1.030724504537463e-05,1.6230023165873366e-05,0.0005733133092633,6.589220518109867e-05,0.2676634619999989
5.165307692,4.60279517205474e-05,7.024138021654405e-06,1.0352156435521072e-05,1.6179810531314126e-05,0.0005735156359002,6.58664519330032e-05,0.268182691999999
5.165826923,4.600825039033828e-05,7.0243262375715855e-06,1.0425173662021655e-05,1.616546405558202e-05,0.0005737919210667,6.585050885354804e-05,0.2687019229999992
5.166346154,4.599891940741893e-05,7.026349320264539e-06,1.0535634091707643e-05,1.6177676059341055e-05,0.0005741112784797,6.583492136139833e-05,0.26922115399999935
5.166865385,4.600278506404019e-05,7.026446008364721e-06,1.0682087880779524e-05,1.6195933961274113e-05,0.0005744387818537,6.582027549108894e-05,0.2697403849999995
5.167384615,4.599924672215641e-05,7.016886735210742e-06,1.0855502905888598e-05,1.61937288575846e-05,0.0005747392771704,6.581699512880856e-05,0.27025961499999873
5.167903846,4.598672177047971e-05,6.997979522110428e-06,1.1035833380413898e-05,1.6159402811290016e-05,0.0005749413758155,6.581668042454499e-05,0.2707788459999989
5.168423077,4.598038139835564e-05,6.983775268877581e-06,1.1197254062294172e-05,1.610440028638274e-05,0.0005750207540071,6.579768171195644e-05,0.2712980769999991
5.168942308,4.6005265641978105e-05,6.984368019607233e-06,1.132580197373851e-05,1.604639774695801e-05,0.0005750310857935,6.577401327003184e-05,0.27181730799999926
5.169461538,4.609256166777733e-05,6.993139853134339e-06,1.1420634534518303e-05,1.5990232197919974e-05,0.0005750202033658,6.57713971366232e-05,0.27233653799999935
5.169980769,4.618464486969218e-05,7.001164452452255e-06,1.1487987687343822e-05,1.59230673994488e-05,0.0005750000692726,6.576273393121678e-05,0.2728557689999995
5.1705,4.621184358538413e-05,7.007204400256029e-06,1.154166488178137e-05,1.5826795284577322e-05,0.0005749584839203,6.571065489041633e-05,0.2733749999999988
5.171019231,4.622340069501603e-05,7.011277830103775e-06,1.1595294414065542e-05,1.57008757193126e-05,0.0005748973882013,6.563564345980424e-05,0.273894230999999
5.171538462,4.62631260843713e-05,7.012273285596471e-06,1.1661077835260156e-05,1.5563944729513593e-05,0.0005748649882092,6.556513541589041e-05,0.27441346199999916
5.172057692,4.637154614895427e-05,7.0102540906582655e-06,1.1741556952199888e-05,1.542489225410256e-05,0.0005748751671135,6.547449442699398e-05,0.27493269199999926
5.172576923,4.659498295951573e-05,7.007189813608228e-06,1.182688243577216e-05,1.5267638413831604e-05,0.0005748869398954,6.529881202892508e-05,0.27545192299999943
5.173096154,4.6856779232734816e-05,7.004432956862531e-06,1.1900348419293508e-05,1.5073524601716576e-05,0.000574891141986,6.502164094347707e-05,0.2759711539999987
5.173615385,4.707389515942458e-05,7.000349358827972e-06,1.194458128630121e-05,1.4865683982476364e-05,0.0005748884066026,6.479435136760533e-05,0.2764903849999989
5.174134615,4.720922205780693e-05,6.989892342763314e-06,1.1962186291529222e-05,1.4709965348708711e-05,0.0005748886839749,6.4748171312581e-05,0.277009614999999
5.174653846,4.72544129540927e-05,6.9654270568919225e-06,1.1965906991311196e-05,1.4637881177540083e-05,0.0005749450739292,6.472438745922577e-05,0.27752884599999916
5.175173077,4.7386498457625466e-05,6.929453023781122e-06,1.1960705450869255e-05,1.4618908694366416e-05,0.0005750573155319,6.450990979932499e-05,0.27804807699999934
5.175692308,4.778399520255229e-05,6.896281618995215e-06,1.1951011919030509e-05,1.4618495525870063e-05,0.000575159600086,6.415905329786125e-05,0.2785673079999995
5.176211538,4.831950962943551e-05,6.8700979086607925e-06,1.1940719801633051e-05,1.4618295074156576e-05,0.0005752165063407,6.38820185876275e-05,0.2790865379999987
5.176730769,4.877981935295898e-05,6.85053631843122e-06,1.193186318334972e-05,1.460843701903406e-05,0.0005752396893675,6.378007001501615e-05,0.2796057689999989
5.17725,4.911952640657429e-05,6.853066761671917e-06,1.1932799724482897e-05,1.4595749793200492e-05,0.0005752732873384,6.377789904068586e-05,0.28012499999999907
5.177769231,4.937531671278874e-05,6.886236647290135e-06,1.1952590867619957e-05,1.4592956555090737e-05,0.0005753368686243,6.377086285999379e-05,0.28064423099999924
5.178288462,4.959083009728042e-05,6.929707289347915e-06,1.1984105877893632e-05,1.46029847912833e-05,0.0005753940711354,6.37528417883811e-05,0.2811634619999994
5.178807692,4.980379590049904e-05,6.960004242443543e-06,1.201035135113299e-05,1.4620844045341278e-05,0.0005754355750961,6.374788587173155e-05,0.2816826919999995
5.179326923,5.000888915875071e-05,6.973547531196456e-06,1.2022937029608371e-05,1.463697216223817e-05,0.0005754754995914,6.374769435295493e-05,0.2822019229999988
5.179846154,5.017150044370111e-05,6.97891655639293e-06,1.201982728695938e-05,1.464426404946986e-05,0.0005754923773664,6.374133946615138e-05,0.282721153999999
5.180365385,5.025962843908543e-05,6.986395386650063e-06,1.1999569483125348e-05,1.464546114842808e-05,0.0005754833843255,6.370183877828564e-05,0.28324038499999915
5.180884615,5.027767844018919e-05,7.0088667071250165e-06,1.1976002484569904e-05,1.4646956906825982e-05,0.0005754780028481,6.363823269062778e-05,0.28375961499999924
5.181403846,5.027755239395604e-05,7.05427533668508e-06,1.1974506637563465e-05,1.4651649695052536e-05,0.000575483636574,6.360766812123163e-05,0.2842788459999994
5.181923077,5.027131506489222e-05,7.105426686533144e-06,1.19954135680035e-05,1.4653703146526622e-05,0.0005754968388831,6.360848813185594e-05,0.2847980769999996
5.182442308,5.0240992571110366e-05,7.132245503326216e-06,1.2014183873823228e-05,1.463662109590406e-05,0.000575512265121,6.360807253895315e-05,0.2853173079999989
5.182961538,5.018297675635097e-05,7.124052587055994e-06,1.2020202530281742e-05,1.4592298253273412e-05,0.0005755169879298,6.360867489345603e-05,0.285836537999999
5.183480769,5.006662645726878e-05,7.090732652558715e-06,1.2022131615047458e-05,1.4530176993552926e-05,0.0005755167022129,6.359722156655145e-05,0.28635576899999915
5.184,4.996178701914553e-05,7.052705338801897e-06,1.2015422745198916e-05,1.4461528878848794e-05,0.0005755249442076,6.353924906491705e-05,0.2868749999999993
5.184519231,5.000613114284472e-05,7.030662273998538e-06,1.1989252756707355e-05,1.4393896746318104e-05,0.000575531646049,6.345626417854338e-05,0.2873942309999995
5.185038462,5.013974619925036e-05,7.02810391183981e-06,1.1963014375607638e-05,1.4327368848721193e-05,0.000575521622513,6.341005810500596e-05,0.2879134619999988
5.185557692,5.019535102641048e-05,7.032803750542087e-06,1.1955159642169928e-05,1.424903368607663e-05,0.0005754946710031,6.340524518989869e-05,0.2884326919999989
5.186076923,5.008220250927512e-05,7.0359098291808185e-06,1.1954332525685624e-05,1.414531769129468e-05,0.0005755013224312,6.340155005944227e-05,0.28895192299999906
5.186596154,4.985528956187958e-05,7.036311304455954e-06,1.1950685078974436e-05,1.4016495213133896e-05,0.0005756086730483,6.338520559732289e-05,0.28947115399999923
5.187115385,4.9799246987257336e-05,7.033887691666471e-06,1.1942104513573304e-05,1.3881490562680684e-05,0.00057576630241,6.336004740935458e-05,0.2899903849999994
5.187634615,5.012530647825691e-05,7.024242639543061e-06,1.1932073426511336e-05,1.3770001900422806e-05,0.0005758801073157,6.331815984477581e-05,0.2905096149999995
5.188153846,5.063605799249967e-05,6.992919277268541e-06,1.1933266077998416e-05,1.369493344336712e-05,0.0005759466152681,6.325112750288784e-05,0.2910288459999988
5.188673077,5.102688507947036e-05,6.931171315397061e-06,1.194673266521074e-05,1.3641915290521212e-05,0.0005759876907247,6.317031740507311e-05,0.29154807699999896
5.189192308,5.123539730084357e-05,6.868400141839784e-06,1.1956166003106373e-05,1.3596510547964524e-05,0.0005760509585014,6.31038550298575e-05,0.29206730799999914
5.189711538,5.140028475468787e-05,6.841859196451183e-06,1.1953195675466514e-05,1.3553653975082537e-05,0.0005762128779932,6.306816197716669e-05,0.29258653799999923
5.190230769,5.1736314597616486e-05,6.842784899848168e-06,1.1947804686013602e-05,1.350769038912638e-05,0.0005764653581319,6.305415602815426e-05,0.2931057689999994
5.19075,5.227541492279066e-05,6.844468915103564e-06,1.1949301763470342e-05,1.3458775729233486e-05,0.0005767413512113,6.304369209453684e-05,0.2936249999999996
5.191269231,5.277427253164275e-05,6.844370873872292e-06,1.1956733824782844e-05,1.3409220575930808e-05,0.0005770045518846,6.302406440804834e-05,0.29414423099999887
5.191788462,5.313382866233324e-05,6.848667525350102e-06,1.196953676022329e-05,1.3353703210417055e-05,0.0005772535879575,6.299713701812858e-05,0.29466346199999904
5.192307692,5.351388489517692e-05,6.8517004432948505e-06,1.1989458571046834e-05,1.3284895495812332e-05,0.0005775061628799,6.297561119432765e-05,0.29518269199999914
5.192826923,5.394109760096167e-05,6.8516694286834536e-06,1.2013284418291944e-05,1.3205712507553424e-05,0.0005777623840065,6.296297080657365e-05,0.2957019229999993
5.193346154,5.43406165906146e-05,6.849742674762648e-06,1.2031812278170971e-05,1.313295128416794e-05,0.000578005317789,6.295332273877037e-05,0.2962211539999995
5.193865385,5.47732216739756e-05,6.836401020405834e-06,1.2039365262580567e-05,1.3082411378260644e-05,0.0005782336169575,6.294065322745506e-05,0.2967403849999988
5.194384615,5.523261997583821e-05,6.815639672806135e-06,1.2042402336864983e-05,1.3055033123053328e-05,0.0005784347556912,6.291605401295054e-05,0.29725961499999887
5.194903846,5.55980521253408e-05,6.8041561848998695e-06,1.20498180067773e-05,1.304546753506709e-05,0.0005785717442303,6.288007743375766e-05,0.29777884599999904
5.195423077,5.580658727707701e-05,6.802373803793234e-06,1.207413927500945e-05,1.3050155480613351e-05,0.0005786364523222,6.28478543185201e-05,0.2982980769999992
5.195942308,5.586145764040027e-05,6.803153833841336e-06,1.2112601749790122e-05,1.3058141816227137e-05,0.0005786607491224,6.282595705847653e-05,0.2988173079999994
5.196461538,5.583090642159947e-05,6.804940999002836e-06,1.2135397169270957e-05,1.3060549345129231e-05,0.0005786760772619,6.281387689011458e-05,0.2993365379999995
5.196980769,5.579435246452224e-05,6.806151923512037e-06,1.2138913977120297e-05,1.3060516334357432e-05,0.0005787062980257,6.281333361259893e-05,0.2998557689999988
5.1975,5.577536024639903e-05,6.805560901744541e-06,1.2139088332279117e-05,1.3060637868564807e-05,0.0005787471129465,6.281775067654406e-05,0.30037499999999895
5.198019231,5.57151129304704e-05,6.806758831931425e-06,1.2141207679580575e-05,1.3061407529681776e-05,0.0005787550044394,6.281925877284451e-05,0.3008942309999991
5.198538462,5.556150833655433e-05,6.811202397634572e-06,1.2151435545568029e-05,1.3058567643357225e-05,0.0005787112655126,6.281907095188026e-05,0.3014134619999993
5.199057692,5.544188319291303e-05,6.813493326902175e-06,1.2162642849815606e-05,1.3043755657911702e-05,0.0005786265672432,6.281728870168722e-05,0.3019326919999994
5.199576923,5.543201449207079e-05,6.812533083252263e-06,1.2165603108595552e-05,1.3020187089057746e-05,0.0005785194811189,6.281225195897537e-05,0.30245192299999957
5.200096154,5.542276538096876e-05,6.812118107124125e-06,1.2165520560248503e-05,1.2995071050488487e-05,0.0005784305500112,6.280921625307065e-05,0.30297115399999885
5.200615385,5.541275741471941e-05,6.8099714968616425e-06,1.2164682788650628e-05,1.2966092021425787e-05,0.0005783724332073,6.281044147422243e-05,0.30349038499999903
5.201134615,5.542100226950819e-05,6.799856480930847e-06,1.2161469667126069e-05,1.292668404675713e-05,0.0005783136671412,6.281115770218244e-05,0.3040096149999991
5.201653846,5.542059016313438e-05,6.777627964295667e-06,1.2161908787905363e-05,1.2873494666377137e-05,0.0005782048835226,6.281081386686654e-05,0.3045288459999993
5.202173077,5.547218035449188e-05,6.7439570021696215e-06,1.217051702165809e-05,1.2812783356262826e-05,0.000577999282663,6.281073202319483e-05,0.3050480769999995
5.202692308,5.560747935055615e-05,6.711176021340936e-06,1.217671509241173e-05,1.2756543054006788e-05,0.0005777385779135,6.281048784701713e-05,0.30556730799999876
5.203211538,5.578681023195937e-05,6.696803394687112e-06,1.2171268771152614e-05,1.271194773830455e-05,0.0005775309386399,6.280725141345914e-05,0.30608653799999885
5.203730769,5.5950618892918784e-05,6.697830753565666e-06,1.21609885209324e-05,1.2677656633460908e-05,0.000577401885454,6.279652663003361e-05,0.30660576899999903
5.20425,5.609568637347613e-05,6.699449950533002e-06,1.2151566051794162e-05,1.2647526282346696e-05,0.0005772936052108,6.278534419112675e-05,0.3071249999999992
5.204769231,5.622259623470804e-05,6.699802668875146e-06,1.214413778583758e-05,1.2616464368696816e-05,0.0005771531138891,6.278241680556034e-05,0.3076442309999994
5.205288462,5.631071062383947e-05,6.699510359812051e-06,1.2143168049153144e-05,1.257835534127117e-05,0.0005769701483928,6.278272081709676e-05,0.30816346199999956
5.205807692,5.6392669489963344e-05,6.699490470179595e-06,1.21468152378517e-05,1.2525663212203612e-05,0.0005768047823025,6.278309095983538e-05,0.30868269199999876
5.206326923,5.652738103984012e-05,6.697118714965135e-06,1.2147762515887965e-05,1.2460070548777031e-05,0.0005767264910364,6.278364209479194e-05,0.30920192299999893
5.206846154,5.677755252862781e-05,6.690748008225849e-06,1.2146791631621189e-05,1.2396744124888176e-05,0.0005767193513439,6.27822943430437e-05,0.3097211539999991
5.207365385,5.714177623081034e-05,6.688795466112249e-06,1.2153862522751506e-05,1.2350075874698004e-05,0.0005767293990811,6.278253807478695e-05,0.3102403849999993
5.207884615,5.747028420524005e-05,6.687427054092021e-06,1.217203289989096e-05,1.2317842564073964e-05,0.0005767383600363,6.278544479891121e-05,0.3107596149999994
5.208403846,5.761826915035648e-05,6.685492304054045e-06,1.2189822333037315e-05,1.2284839058161188e-05,0.0005767487576097,6.27867706001289e-05,0.31127884599999955
5.208923077,5.759045409537464e-05,6.6879748908153e-06,1.2199351317901704e-05,1.2239959270729652e-05,0.0005767677267813,6.278678348415678e-05,0.31179807699999884
5.209442308,5.750326971067245e-05,6.685362742546384e-06,1.2204745067131288e-05,1.2185858800474858e-05,0.0005767904572256,6.278683241682563e-05,0.312317307999999
5.209961538,5.750167049953392e-05,6.679664598386693e-06,1.2209345194452734e-05,1.2131975761957453e-05,0.000576797417324,6.2786595234018e-05,0.3128365379999991
5.210480769,5.7574665361975336e-05,6.679540449748041e-06,1.2211204694775624e-05,1.2083341616171663e-05,0.0005767813014588,6.278668415902387e-05,0.3133557689999993
5.211,5.762983064668807e-05,6.680971191164165e-06,1.2210133594203876e-05,1.203720617815407e-05,0.000576739964376,6.278715950182125e-05,0.31387499999999946
5.211519231,5.767154791689064e-05,6.681263841559716e-06,1.2209691755900067e-05,1.1983327267967895e-05,0.0005766744990362,6.278712045032051e-05,0.31439423099999875
5.212038462,5.766887280758025e-05,6.681286389970532e-06,1.2209884188323945e-05,1.1905830926468125e-05,0.0005766213054162,6.27887982744863e-05,0.3149134619999989
5.212557692,5.761817094099615e-05,6.68110644402381e-06,1.2204199012171468e-05,1.1792532089092969e-05,0.0005766023716116,6.279166169807971e-05,0.315432691999999
5.213076923,5.762000129524991e-05,6.681116206643099e-06,1.2194775359391736e-05,1.1654618578182477e-05,0.0005765771115697,6.278973709663626e-05,0.3159519229999992
5.213596154,5.764313292972172e-05,6.680994525374144e-06,1.219331365871844e-05,1.153291193526998e-05,0.0005764929464361,6.278790556375718e-05,0.31647115399999937
5.214115385,5.761410722833921e-05,6.680636491410709e-06,1.219603039395553e-05,1.1460117703420402e-05,0.000576303419695,6.279222342538958e-05,0.31699038499999954
5.214634615,5.752430387986081e-05,6.680650652417664e-06,1.2197831215288975e-05,1.1426717249307778e-05,0.0005760323880311,6.279604005650443e-05,0.31750961499999875
5.215153846,5.737766910712207e-05,6.680695877419392e-06,1.219730596714389e-05,1.1406732335058209e-05,0.0005758123875642,6.279684642593145e-05,0.3180288459999989
5.215673077,5.727462609947232e-05,6.680686184825842e-06,1.2197307048943935e-05,1.1389016587318223e-05,0.0005757086110715,6.279542103995537e-05,0.3185480769999991
5.216192308,5.726557648681966e-05,6.680601317095792e-06,1.2214366790871402e-05,1.1383149046183618e-05,0.0005756506458534,6.279105834653643e-05,0.3190673079999993
5.216711538,5.7271178679971536e-05,6.680472150876521e-06,1.2242793581460474e-05,1.1376971848140182e-05,0.0005755740062725,6.278767512565161e-05,0.31958653799999936
5.217230769,5.72623979994483e-05,6.680534565110565e-06,1.2268683467404436e-05,1.127724559562744e-05,0.0005754909653049,6.278638150486724e-05,0.32010576899999954
5.21775,5.724754521812145e-05,6.683208838023663e-06,1.2293834706015437e-05,1.1023435183480144e-05,0.0005754891152677,6.278644006461708e-05,0.3206249999999988
5.218269231,5.722885525306228e-05,6.690655772287668e-06,1.231067957249015e-05,1.071466514558966e-05,0.0005756214561007,6.278722993353657e-05,0.321144230999999
5.218788462,5.722885825416383e-05,6.699325858629923e-06,1.2312688060462296e-05,1.0474893936784138e-05,0.0005757725006931,6.278517469931059e-05,0.3216634619999992
5.219307692,5.721292724097678e-05,6.705788619810374e-06,1.2316029205361035e-05,1.0314804728711056e-05,0.000575790385543,6.278321084984328e-05,0.32218269199999927
5.219826923,5.714712945979495e-05,6.708872942647898e-06,1.2339016388128308e-05,1.019449230845501e-05,0.0005756589739282,6.278513668607296e-05,0.32270192299999945
5.220346154,5.709515834235234e-05,6.710777581446913e-06,1.237850444729091e-05,1.009392750908569e-05,0.000575426564351,6.278587004503227e-05,0.32322115399999873
5.220865385,5.709506968686709e-05,6.714776409582144e-06,1.2417444612495216e-05,1.001924262560947e-05,0.0005751085044297,6.278377811919814e-05,0.3237403849999989
5.221384615,5.709433163897012e-05,6.718606578544149e-06,1.244010889200999e-05,9.982257287974592e-06,0.000574713182896,6.278271242902263e-05,0.324259614999999
5.221903846,5.707240609008358e-05,6.719144323834106e-06,1.2444332976271454e-05,9.97402421996809e-06,0.0005742877196598,6.278281302768211e-05,0.3247788459999992
5.222423077,5.705020254421103e-05,6.715611470040679e-06,1.244208531223711e-05,9.973629426580573e-06,0.0005739193569342,6.278276594179333e-05,0.32529807699999935
5.222942308,5.703711311189381e-05,6.710283592407276e-06,1.244139851177119e-05,9.970297839837945e-06,0.0005736704461338,6.278269573218064e-05,0.32581730799999953
5.223461538,5.70549992492307e-05,6.707141524314313e-06,1.2444080597742888e-05,9.965694678578542e-06,0.0005735426135009,6.278268694982772e-05,0.32633653799999873
5.223980769,5.708307287013706e-05,6.706128832041902e-06,1.244785100911382e-05,9.96339308792258e-06,0.0005735155791274,6.278078679139243e-05,0.3268557689999989
5.2245,5.70853768657958e-05,6.705747579925132e-06,1.2448634850289915e-05,9.962470846227855e-06,0.0005735087701488,6.277067993188897e-05,0.3273749999999991
5.225019231,5.709680414042208e-05,6.706627909717876e-06,1.2447254256573972e-05,9.961875559787494e-06,0.0005733562964892,6.274629251953824e-05,0.32789423099999926
5.225538462,5.7122584320244594e-05,6.70673726317055e-06,1.2446116089507193e-05,9.962620425821213e-06,0.0005729014510086,6.271113348756027e-05,0.32841346199999943
5.226057692,5.71297020540288e-05,6.701187486741173e-06,1.244736541625472e-05,9.962882012016324e-06,0.0005719674502788,6.267289293532747e-05,0.3289326919999995
5.226576923,5.7129814114062414e-05,6.690475264479634e-06,1.245164167659786e-05,9.95946174933991e-06,0.0005702464234713,6.262900019188862e-05,0.3294519229999988
5.227096154,5.712714582836815e-05,6.680634287308586e-06,1.2457547425648292e-05,9.95427481892344e-06,0.0005673540892504,6.2560797940685e-05,0.329971153999999
5.227615385,5.711827540966929e-05,6.674433505615451e-06,1.2460311145253869e-05,9.951414714456691e-06,0.0005630898091425,6.244256380513648e-05,0.33049038499999916
5.228134615,5.70866543854334e-05,6.666417987140537e-06,1.2456442588453456e-05,9.95126455665881e-06,0.0005577532900758,6.227267963464398e-05,0.33100961499999926
5.228653846,5.692899123267006e-05,6.642251746646804e-06,1.2449697937469636e-05,9.946535618103246e-06,0.0005520171672167,6.20828773786899e-05,0.33152884599999943
5.229173077,5.658434931679367e-05,6.59825024344148e-06,1.2441198936608724e-05,9.936045953848695e-06,0.0005463338858194,6.189692129117568e-05,0.3320480769999987
5.229692308,5.620346371263975e-05,6.558035243509975e-06,1.2421732419465926e-05,9.93221341296774e-06,0.0005406853275188,6.170087885912958e-05,0.3325673079999989
5.230211538,5.5994113720203054e-05,6.5406363445285945e-06,1.237516175768364e-05,9.933702046945048e-06,0.0005349074481638,6.14553107691001e-05,0.333086537999999
5.230730769,5.596501033061351e-05,6.536856784647238e-06,1.2301545921151322e-05,9.9331016866501e-06,0.0005290893349593,6.113034252309094e-05,0.33360576899999916
5.23125,5.597445866093698e-05,6.534074442266664e-06,1.2239146303925234e-05,9.934086078230505e-06,0.0005237133586616,6.074766056915843e-05,0.33412499999999934
5.231769231,5.596166089185714e-05,6.525884546143724e-06,1.2223145776289926e-05,9.929649655349308e-06,0.0005193616594435,6.037264215420487e-05,0.3346442309999995
5.232288462,5.596775883299141e-05,6.509482596030336e-06,1.2244588926345243e-05,9.911699875040687e-06,0.0005162407512372,6.004878202999768e-05,0.3351634619999988
5.232807692,5.599907476202477e-05,6.496474331067836e-06,1.2273592891552732e-05,9.89225339496244e-06,0.0005141288062642,5.976572415150931e-05,0.3356826919999989
5.233326923,5.601969798328218e-05,6.495579823866144e-06,1.2289506768994783e-05,9.883057361368847e-06,0.0005127238908628,5.949004381965698e-05,0.33620192299999907
5.233846154,5.600234864514328e-05,6.488413294853916e-06,1.2294911194928314e-05,9.87975441844557e-06,0.000511897197151,5.920411786709061e-05,0.33672115399999925
5.234365385,5.581677656735708e-05,6.463820306128184e-06,1.2298924130730266e-05,9.873435451522788e-06,0.0005116043634922,5.892718270640029e-05,0.3372403849999994
5.234884615,5.527617817203548e-05,6.44642516587709e-06,1.230167284381179e-05,9.85551595125187e-06,0.0005116004572493,5.8702900481643496e-05,0.3377596149999995
5.235403846,5.448259703137286e-05,6.450617162360428e-06,1.23047308033009e-05,9.82357272213102e-06,0.0005113926507156,5.855336650592016e-05,0.3382788459999988
5.235923077,5.3766331090329e-05,6.459987644308496e-06,1.2309192088891402e-05,9.795086254007195e-06,0.0005105340942608,5.846562137598942e-05,0.338798076999999
5.236442308,5.334248815125535e-05,6.462559697199675e-06,1.231385397949972e-05,9.785972997619296e-06,0.0005087849041414,5.841534790176525e-05,0.33931730799999915
5.236961538,5.322463014894782e-05,6.461639241898867e-06,1.2317334453276862e-05,9.78597317050247e-06,0.0005060241929041,5.838369480951792e-05,0.33983653799999924
5.237480769,5.3245631522443344e-05,6.461983858635486e-06,1.2321932299479653e-05,9.780374429170132e-06,0.0005022278524197,5.836356004980323e-05,0.3403557689999994
5.238,5.3252396577314734e-05,6.460404453300079e-06,1.234075146355736e-05,9.768515883497154e-06,0.0004974545939092,5.835392707066708e-05,0.3408749999999996
5.238519231,5.325030610561495e-05,6.453330535039263e-06,1.238805037381563e-05,9.754388470011237e-06,0.000491718138447,5.835396682132041e-05,0.3413942309999989
5.239038462,5.325103355733591e-05,6.443279411054671e-06,1.2426332132738703e-05,9.73509104774683e-06,0.0004849734155596,5.835823509028568e-05,0.34191346199999906
5.239557692,5.326256080934836e-05,6.433043295521325e-06,1.2379867923395572e-05,9.696273384885944e-06,0.0004773640280415,5.835012308221576e-05,0.34243269199999915
5.240076923,5.33292785905474e-05,6.423815098513483e-06,1.225560140008479e-05,9.622848013479362e-06,0.0004695060969008,5.831203132943683e-05,0.3429519229999993
5.240596154,5.337849229752336e-05,6.416146916088053e-06,1.21305531550901e-05,9.514422540084936e-06,0.000462276510474,5.8239797267551216e-05,0.3434711539999995
5.241115385,5.333425892030925e-05,6.410333583525385e-06,1.2043836198055958e-05,9.38765602352875e-06,0.000456112155887,5.813601663420342e-05,0.3439903849999988
5.241634615,5.3292035748365406e-05,6.4078015135975984e-06,1.1989723890954553e-05,9.27001043924748e-06,0.0004507356141257,5.799344825630652e-05,0.3445096149999989
5.242153846,5.329734499067881e-05,6.409594406717894e-06,1.1943674345234064e-05,9.178626996492783e-06,0.0004456018849991,5.778793662895761e-05,0.34502884599999906
5.242673077,5.329646121020476e-05,6.413018280380734e-06,1.1891645254675365e-05,9.104356737065304e-06,0.0004404520663323,5.749161446363473e-05,0.34554807699999923
5.243192308,5.329734702053954e-05,6.415510304532338e-06,1.1847171371333176e-05,9.031430402002596e-06,0.0004355511621631,5.71048920395055e-05,0.3460673079999994
5.243711538,5.327021075439255e-05,6.41711885714089e-06,1.1826431406512511e-05,8.954712563053636e-06,0.0004313731262622,5.66615676426102e-05,0.3465865379999995
5.244230769,5.316035336328906e-05,6.418642515296078e-06,1.182586049646991e-05,8.881453327192452e-06,0.0004280245588943,5.6179366921038365e-05,0.3471057689999988
5.24475,5.303154550256527e-05,6.422047291552151e-06,1.1828829355943862e-05,8.83087755564597e-06,0.0004251904012774,5.561698167964482e-05,0.34762499999999896
5.245269231,5.294692358967623e-05,6.42485024187487e-06,1.1829799629219393e-05,8.809047407077953e-06,0.000422566458807,5.489054618418918e-05,0.34814423099999914
5.245788462,5.288647595695685e-05,6.425729460492338e-06,1.1828472261053085e-05,8.797885762321745e-06,0.0004201821367867,5.3948958613618544e-05,0.3486634619999993
5.246307692,5.283072823444214e-05,6.426518886548148e-06,1.182384258674062e-05,8.78336447874918e-06,0.0004183173915531,5.285393595441011e-05,0.3491826919999994
5.246826923,5.2795443025347214e-05,6.422613705807801e-06,1.182030425599903e-05,8.76833916994113e-06,0.000417095308023,5.174329268865442e-05,0.3497019229999996
5.247346154,5.279245509175136e-05,6.416510357069024e-06,1.1818418400036442e-05,8.759604253996215e-06,0.0004163164363712,5.0696172918701246e-05,0.35022115399999887
5.247865385,5.2787970751445735e-05,6.420728067052925e-06,1.1819591604158886e-05,8.756845131346679e-06,0.0004156896312906,4.968063675338044e-05,0.35074038499999904
5.248384615,5.280301032194808e-05,6.437735274595318e-06,1.1824270063114775e-05,8.755632288950364e-06,0.0004150227887323,4.8624120010897095e-05,0.35125961499999914
5.248903846,5.2898395316176455e-05,6.456704829838202e-06,1.1828078639415864e-05,8.753796420333308e-06,0.0004142830442686,4.75014690432878e-05,0.3517788459999993
5.249423077,5.300838412399659e-05,6.468293396087029e-06,1.1829424873899922e-05,8.751728315376842e-06,0.0004135650538743,4.636070832609484e-05,0.3522980769999995
5.249942308,5.306849742934873e-05,6.472614057422842e-06,1.1829805115980435e-05,8.750381238770234e-06,0.0004129482005934,4.527922754983741e-05,0.3528173079999988
5.250461538,5.310182631682864e-05,6.471233769210267e-06,1.183044396780829e-05,8.750655495031619e-06,0.0004124370948702,4.4323244674792365e-05,0.35333653799999887
5.250980769,5.30659350016245e-05,6.457717759900741e-06,1.1830725306420793e-05,8.752336844925517e-06,0.0004120057024723,4.354218455592136e-05,0.35385576899999904
5.2515,5.301035198110909e-05,6.422724007528426e-06,1.18205468346118e-05,8.752596001742722e-06,0.000411569410574,4.294912322855347e-05,0.3543749999999992
5.252019231,5.305497447397242e-05,6.368571426596364e-06,1.17888967833218e-05,8.750307370300301e-06,0.0004109725189455,4.250328539630719e-05,0.3548942309999994
5.252538462,5.310757336496228e-05,6.310089130035967e-06,1.175030932172504e-05,8.745065678818936e-06,0.000410075315948,4.214421994857806e-05,0.35541346199999957
5.253057692,5.3111186623318375e-05,6.264456477604567e-06,1.1727319101135284e-05,8.737474210094872e-06,0.0004088918412777,4.183827588619796e-05,0.3559326919999988
5.253576923,5.3100944635491136e-05,6.236121597873782e-06,1.172450191338114e-05,8.737533125686255e-06,0.0004077593007792,4.1591635328569785e-05,0.35645192299999895
5.254096154,5.303739699319265e-05,6.217369781653561e-06,1.1734547420736064e-05,8.75290853220275e-06,0.0004071170459604,4.142305450215027e-05,0.3569711539999991
5.254615385,5.2983744363531504e-05,6.206806031841e-06,1.1744130446924822e-05,8.774782830527514e-06,0.0004069725200597,4.132374248179348e-05,0.3574903849999993
5.255134615,5.300347483322676e-05,6.204462130446708e-06,1.1746961307671704e-05,8.791371062625856e-06,0.0004069836917765,4.12661736635105e-05,0.3580096149999994
5.255653846,5.302079941677218e-05,6.20730022112772e-06,1.1746442873638926e-05,8.799241311238073e-06,0.0004069376176072,4.1234991124503614e-05,0.35852884599999957
5.256173077,5.3022241591054137e-05,6.220461316774848e-06,1.174637051086156e-05,8.797046828392894e-06,0.0004067741342997,4.122421870678703e-05,0.35904807699999886
5.256692308,5.301112164115343e-05,6.243548240564911e-06,1.1747969337650916e-05,8.77988207224526e-06,0.0004063743677643,4.122532604810348e-05,0.35956730799999903
5.257211538,5.29252048569658e-05,6.259039687102066e-06,1.175084222991422e-05,8.740215308093231e-06,0.0004054650436172,4.121616041621785e-05,0.3600865379999991
5.257730769,5.279567621794395e-05,6.260835479842753e-06,1.1752778631870277e-05,8.667897379403954e-06,0.0004036507248772,4.116275631647487e-05,0.3606057689999993
5.25825,5.269251866916728e-05,6.261817630070537e-06,1.1744961045140034e-05,8.550341073055378e-06,0.0004006717552692,4.104356241512295e-05,0.3611249999999995
5.258769231,5.260586700256579e-05,6.263992784881647e-06,1.1744358674981335e-05,8.37211622820062e-06,0.0003965939882247,4.085037137046051e-05,0.36164423099999876
5.259288462,5.25011578925947e-05,6.262092208559314e-06,1.1774643903122402e-05,8.124518660984977e-06,0.0003915883914872,4.056755566559919e-05,0.36216346199999894
5.259807692,5.236904002683914e-05,6.259933694534084e-06,1.1803726248917972e-05,7.843993862961978e-06,0.0003856291798225,4.01678017306111e-05,0.36268269199999903
5.260326923,5.2248852537639976e-05,6.261204477432774e-06,1.1801888791690198e-05,7.604768891588862e-06,0.0003785333737475,3.962024316806644e-05,0.3632019229999992
5.260846154,5.2186373743785714e-05,6.260871446744786e-06,1.1788548471635243e-05,7.4415391969062364e-06,0.0003702973037231,3.890050074805492e-05,0.3637211539999994
5.261365385,5.217266328811738e-05,6.25719501541745e-06,1.1783039860006892e-05,7.331846854651111e-06,0.0003613216808369,3.80033889593236e-05,0.36424038499999956
5.261884615,5.21703162968788e-05,6.252902933166114e-06,1.1779928406047654e-05,7.244068299735494e-06,0.0003521322493578,3.695106572634767e-05,0.36475961499999876
5.262403846,5.21651104152215e-05,6.244730245466703e-06,1.1759097263360112e-05,7.1633948732699175e-06,0.0003428928333797,3.5782367792594134e-05,0.36527884599999894
5.262923077,5.216415609147783e-05,6.234900063422538e-06,1.170246187718666e-05,7.097879178187438e-06,0.0003334585685794,3.452840054304796e-05,0.3657980769999991
5.263442308,5.218600645832183e-05,6.225355526871344e-06,1.1611765616241964e-05,7.063929242464354e-06,0.000323851156577,3.3198174858566614e-05,0.3663173079999993
5.263961538,5.225804088141325e-05,6.21392876641296e-06,1.1510743501242596e-05,7.0584921247884565e-06,0.0003144156713779,3.178594075600604e-05,0.3668365379999994
5.264480769,5.235643217796247e-05,6.196742867968517e-06,1.1424699537823045e-05,7.062773368673279e-06,0.0003055196428846,3.0284233443621814e-05,0.36735576899999955
5.265,5.243143573519285e-05,6.161756072111088e-06,1.1355045885616128e-05,7.0670513578633e-06,0.000297268202482,2.8700463425298176e-05,0.36787499999999884
5.265519231,5.2474539474886834e-05,6.10225275743626e-06,1.129387305782608e-05,7.068952870428596e-06,0.0002896491931705,2.709295255079432e-05,0.368394230999999
5.266038462,5.247643730952397e-05,6.0195270969307416e-06,1.1252019943131964e-05,7.064047730280062e-06,0.0002827915926087,2.5568854158407934e-05,0.3689134619999992
5.266557692,5.248670534243712e-05,5.922868343180886e-06,1.1234906266188182e-05,7.055076520651193e-06,0.0002767730134615,2.419592464076637e-05,0.3694326919999993
5.267076923,5.2594471359868405e-05,5.825647667094944e-06,1.1229063345743856e-05,7.049821960504131e-06,0.0002713646489081,2.2946441235277004e-05,0.36995192299999946
5.267596154,5.273658886953554e-05,5.724451100497424e-06,1.1228186348002416e-05,7.051577438428088e-06,0.0002662044379163,2.174561749744873e-05,0.37047115399999875
5.268115385,5.281431547603061e-05,5.608715605151484e-06,1.1229239610148058e-05,7.056613292690977e-06,0.0002611468890143,2.0553146675870595e-05,0.3709903849999989
5.268634615,5.285153135345422e-05,5.477487341627253e-06,1.122648283428122e-05,7.0578549919444414e-06,0.000256511087211,1.9441545083634048e-05,0.371509614999999
5.269153846,5.2869703852975806e-05,5.344340617618296e-06,1.122429598569257e-05,7.057720243876818e-06,0.0002528489665044,1.855722599315216e-05,0.3720288459999992
5.269673077,5.289990725691149e-05,5.230294744886517e-06,1.1225880961597911e-05,7.059707752951507e-06,0.0002503404395779,1.7953442021112745e-05,0.37254807699999937
5.270192308,5.298412872683263e-05,5.145067874503376e-06,1.1222678653865405e-05,7.060235992002316e-06,0.00024870824139,1.7554969247130233e-05,0.37306730799999954
5.270711538,5.305865582054959e-05,5.088059497621493e-06,1.121004393998432e-05,7.060046533388926e-06,0.0002476376745761,1.7264382593956624e-05,0.37358653799999875
5.271230769,5.302808198281444e-05,5.053391617712366e-06,1.1185306695335632e-05,7.059902004969366e-06,0.0002469915196308,1.7030361915787417e-05,0.3741057689999989
5.27175,5.27903712324546e-05,5.029843299653606e-06,1.1134418926132908e-05,7.0597460762603375e-06,0.0002467529641465,1.6862920692629438e-05,0.3746249999999991
5.272269231,5.2282111778424114e-05,5.007979933298114e-06,1.1055550311157409e-05,7.0640786399837415e-06,0.0002467558850852,1.6776753144076157e-05,0.3751442309999993
5.272788462,5.165335123993882e-05,4.983893226831085e-06,1.0979062893424007e-05,7.0707322360357655e-06,0.0002465291954337,1.6742049411955467e-05,0.37566346199999945
5.273307692,5.1143093546689385e-05,4.957425028616347e-06,1.093319791683908e-05,7.072639774186016e-06,0.0002456931444989,1.6722535602002135e-05,0.37618269199999954
5.273826923,5.079341518088636e-05,4.931137055011291e-06,1.091260931985168e-05,7.071771828452094e-06,0.0002442707882671,1.670704903267564e-05,0.37670192299999883
5.274346154,5.047534261992868e-05,4.911406871195751e-06,1.088292785352525e-05,7.072541099266346e-06,0.0002423659963334,1.6701873277278064e-05,0.377221153999999
5.274865385,5.005481338161392e-05,4.905749458901104e-06,1.0811364806952196e-05,7.073460469468536e-06,0.000239807378583,1.670489914974787e-05,0.3777403849999992
5.275384615,4.9538304906530273e-05,4.913554641144135e-06,1.0703063020627874e-05,7.070148835959966e-06,0.000236240642908,1.6682940393110002e-05,0.37825961499999927
5.275903846,4.917959550696228e-05,4.923560786663262e-06,1.0589361608108216e-05,7.0624202903866215e-06,0.0002314615427231,1.6596415106346908e-05,0.37877884599999945
5.276423077,4.91199591780484e-05,4.923369203951412e-06,1.0491176032111454e-05,7.055729374149932e-06,0.0002255854376559,1.644372601932706e-05,0.37929807699999873
5.276942308,4.916852332870545e-05,4.911336381990911e-06,1.040054006397092e-05,7.052369643966111e-06,0.0002188072531579,1.624816393560597e-05,0.3798173079999989
5.277461538,4.918679278687973e-05,4.900473304993197e-06,1.0293378956233748e-05,7.054560151613667e-06,0.000211249033904,1.6035606735676154e-05,0.380336537999999
