Time,Rectus Femoris,Vastus Medialis,Vastus Lateralis,Bicep Femoris,Tibialis,Gastrocnemius Medialis,Activity
0.00025961500000004634,7.218402349004601e-06,2.8896393665570886e-06,1.0776890686216462e-05,1.5068507559381172e-05,2.100656413833278e-05,4.9823168294228e-06,Unknown
0.0007788459999993336,7.207286330192649e-06,2.9025617830049453e-06,1.0790283073586034e-05,1.506911723422333e-05,2.100681668100106e-05,4.985687763326388e-06,Unknown
0.001298076999999509,7.209669076424613e-06,2.9077215454319786e-06,1.079601434428501e-05,1.5076234526042346e-05,2.1004214336940683e-05,4.992993355094016e-06,Unknown
0.0018173079999996844,7.211078157167791e-06,2.909387995960885e-06,1.079823298007376e-05,1.5091145768364606e-05,2.1000982682457127e-05,4.999064101757293e-06,Unknown
0.002336537999999777,7.219528455422191e-06,2.914202514136935e-06,1.0800790526587064e-05,1.5112289713211912e-05,2.1000716897037e-05,4.999232137190174e-06,Unknown
0.0028557689999999525,7.2525833141583054e-06,2.9303114446504384e-06,1.0803346787693634e-05,1.5135676504961e-05,2.098543452527661e-05,4.995604142334735e-06,Unknown
0.003375000000000128,7.334457119198757e-06,2.954084611925984e-06,1.0804596346656298e-05,1.5161929754755024e-05,2.0926205052496774e-05,4.992842684447156e-06,Unknown
0.003894230999999415,7.480604061027231e-06,2.96587382717843e-06,1.0804910508203068e-05,1.519304703519098e-05,2.0829626861447028e-05,4.993276358652951e-06,Unknown
0.0044134619999995905,7.622633912133736e-06,2.9619109810223624e-06,1.0804144494508029e-05,1.5228914853753394e-05,2.0736336865689826e-05,4.995791298262339e-06,Unknown
0.004932691999999683,7.696075174846691e-06,2.9576699368842214e-06,1.0801489579950574e-05,1.526732725847389e-05,2.0671788826622955e-05,4.998376488962531e-06,Unknown
0.005451922999999859,7.725187166879354e-06,2.9598880905788585e-06,1.0798103078566628e-05,1.5299713449993003e-05,2.0643186352661813e-05,4.999041948882499e-06,Unknown
0.005971154000000034,7.74534488939979e-06,2.963851495843732e-06,1.0796570511728168e-05,1.5316211939004338e-05,2.0652958845148057e-05,4.996376256167776e-06,Unknown
0.006490384999999321,7.777712789895809e-06,2.967126032651414e-06,1.0796692377481625e-05,1.5316359279059567e-05,2.067389638429521e-05,4.993278331189025e-06,Unknown
0.007009614999999414,7.825160242019883e-06,2.9708525578392563e-06,1.0796949033766473e-05,1.530972259186059e-05,2.067104533648605e-05,4.992706381581868e-06,Unknown
0.007528845999999589,7.851982084000614e-06,2.9741434276390856e-06,1.0797048185071906e-05,1.5306857631540084e-05,2.0656070446725544e-05,4.992613549508456e-06,Unknown
0.008048076999999765,7.833482255760355e-06,2.975341978192141e-06,1.0796510914417855e-05,1.530843359097338e-05,2.0655214409533877e-05,4.9924884605686565e-06,Unknown
0.00856730799999994,7.790200616163108e-06,2.975377111317993e-06,1.0793050469381556e-05,1.5307377462937437e-05,2.065808325921525e-05,4.993707434053968e-06,Unknown
0.009086538000000033,7.756645153329463e-06,2.975395440135065e-06,1.078566030509026e-05,1.5300431838126594e-05,2.0642677355949725e-05,4.994866109082191e-06,Unknown
0.00960576899999932,7.750703349772284e-06,2.9744242094913963e-06,1.0780295805349638e-05,1.5287547186294286e-05,2.06048442301412e-05,4.994974157367438e-06,Unknown
0.010124999999999496,7.75720185669731e-06,2.9725639381528784e-06,1.0780575657754314e-05,1.5268765608991068e-05,2.0552321769434437e-05,4.995263553966379e-06,Unknown
0.010644230999999671,7.74187590077685e-06,2.9761551096230364e-06,1.0780339009817858e-05,1.5247975218035292e-05,2.0497197933000065e-05,4.997066212977799e-06,Unknown
0.011163461999999846,7.72055448896859e-06,2.991871106378992e-06,1.077741229664979e-05,1.5229103583638733e-05,2.045240284496673e-05,5.001099052582913e-06,Unknown
0.011682691999999939,7.735065032352724e-06,3.0139775103138484e-06,1.0776028602418407e-05,1.5212316774990371e-05,2.041419745339076e-05,5.0074816305242655e-06,Unknown
0.012201923000000114,7.762523152523966e-06,3.0273458711129987e-06,1.0776076884797724e-05,1.5196300155012924e-05,2.035759423188412e-05,5.012600266081293e-06,Unknown
0.012721153999999402,7.775536320689309e-06,3.028034061465789e-06,1.0776010456652576e-05,1.518129479091055e-05,2.027486490681332e-05,5.009218997638836e-06,Unknown
0.013240384999999577,7.786199586830366e-06,3.0264916730391536e-06,1.077602301083522e-05,1.517729337481269e-05,2.019952698743817e-05,5.001081865207861e-06,Unknown
0.01375961499999967,7.799344479512274e-06,3.0267391985770872e-06,1.0774923829645918e-05,1.5201921279402152e-05,2.0173185260537767e-05,4.999254199263607e-06,Unknown
0.014278845999999845,7.84678368855459e-06,3.026124117626676e-06,1.0772787036008937e-05,1.5252591912086493e-05,2.017814665964764e-05,4.997656136306133e-06,Unknown
0.01479807700000002,7.947906989173965e-06,3.0258627262996064e-06,1.0771198797931817e-05,1.529636943750267e-05,2.016727591942421e-05,4.98624802213641e-06,Unknown
0.015317307999999308,8.043946244020563e-06,3.0258428862559715e-06,1.0770139674765537e-05,1.530700789316544e-05,2.015896249338209e-05,4.971959220314444e-06,Unknown
0.0158365379999994,8.100868350667108e-06,3.0265057428135006e-06,1.0768995408608032e-05,1.5290443300873593e-05,2.015567090321403e-05,4.965673391001768e-06,Unknown
0.016355768999999576,8.139874283049106e-06,3.02822009988399e-06,1.0767147665878852e-05,1.5263499993291445e-05,2.0124168806367623e-05,4.968211311312813e-06,Unknown
0.01687499999999975,8.167298592193475e-06,3.02929968771268e-06,1.0762141017080598e-05,1.5229900934893464e-05,2.011246646422549e-05,4.973585181314268e-06,Unknown
0.017394230999999927,8.185749093191337e-06,3.030226412500418e-06,1.074970916807354e-05,1.5181437628875698e-05,2.0103333577944832e-05,4.980251359091192e-06,Unknown
0.017913462000000102,8.204302291785733e-06,3.0290033740376437e-06,1.0729576258890432e-05,1.5112093291294308e-05,1.996856427958003e-05,4.989364048863658e-06,Unknown
0.018432691999999307,8.228310477492806e-06,3.0222727243942646e-06,1.0708312617874556e-05,1.5035195247450668e-05,1.9727570277187987e-05,4.9971865258164825e-06,Unknown
0.018951922999999482,8.258939656932533e-06,3.012051951833155e-06,1.0691206529614167e-05,1.4979087105015304e-05,1.953211657896687e-05,4.998223867972718e-06,Unknown
0.019471153999999657,8.275450063604694e-06,3.004466580221316e-06,1.0677813037958044e-05,1.4954722597522396e-05,1.945374347080065e-05,4.99300556011756e-06,Unknown
0.019990384999999833,8.269719651891976e-06,3.001515417101133e-06,1.0665135822267143e-05,1.4947843898677742e-05,1.9454759709358685e-05,4.991065546253027e-06,Unknown
0.020509614999999926,8.263488706868509e-06,3.003258113480448e-06,1.0652841873547595e-05,1.4946643772948382e-05,1.946742873093536e-05,4.999991120704692e-06,Unknown
0.0210288460000001,8.26010785914357e-06,3.0113203916318983e-06,1.0643610370081e-05,1.4950252343951937e-05,1.945557253576561e-05,5.014370224852685e-06,Unknown
0.021548076999999388,8.25911862857805e-06,3.020029098043987e-06,1.0637452510225818e-05,1.495220993111586e-05,1.94227142471946e-05,5.023449479290092e-06,Unknown
0.022067307999999564,8.266873053931562e-06,3.022035659005401e-06,1.0633449415428969e-05,1.4942788778308925e-05,1.937964368665216e-05,5.02295282466815e-06,Unknown
0.022586537999999656,8.269080558990387e-06,3.0181961714034472e-06,1.0631370726217535e-05,1.492584140162615e-05,1.9316862164452423e-05,5.016888333868809e-06,Unknown
0.02310576899999983,8.26751084404619e-06,3.012024982989924e-06,1.0630063744472198e-05,1.491451731737078e-05,1.9210823528522456e-05,5.012349224296045e-06,Unknown
0.023625000000000007,8.277475991450708e-06,3.009161294747361e-06,1.062746095911896e-05,1.4914822716266447e-05,1.9088003609829003e-05,5.01121020357814e-06,Unknown
0.024144231000000183,8.288804156474538e-06,3.0138028154782378e-06,1.0622392069365342e-05,1.4923157763545984e-05,1.90268674808048e-05,5.013375904706795e-06,Unknown
0.02466346199999947,8.29561962092171e-06,3.0196484497121084e-06,1.0619381275727153e-05,1.4933961118038186e-05,1.90314510748584e-05,5.02444702699467e-06,Unknown
0.025182691999999562,8.304023067416157e-06,3.023100536726159e-06,1.0622147804809364e-05,1.4943985134361418e-05,1.901273155958168e-05,5.040019841158245e-06,Unknown
0.025701922999999738,8.322009812360925e-06,3.026040306490381e-06,1.062196603464073e-05,1.495138323963332e-05,1.8936721776381003e-05,5.046633944381014e-06,Unknown
0.026221153999999913,8.360756498023124e-06,3.0302337039509133e-06,1.0609685151278326e-05,1.495389344841845e-05,1.887670970690844e-05,5.046093395172197e-06,Unknown
0.02674038500000009,8.400465996684166e-06,3.0403039785911707e-06,1.0590603506988633e-05,1.4948846943332415e-05,1.8875645645188265e-05,5.046254142293278e-06,Unknown
0.02725961500000018,8.417118858553593e-06,3.050497008169675e-06,1.0572729565026943e-05,1.493519739659885e-05,1.883007441007956e-05,5.047331593592993e-06,Unknown
0.02777884599999947,8.424801678656977e-06,3.049897063498952e-06,1.0556497412929622e-05,1.4914955362859218e-05,1.8604260928168557e-05,5.044627351185236e-06,Unknown
0.028298076999999644,8.425154483653264e-06,3.039585179170018e-06,1.0540451452370112e-05,1.4890183803630115e-05,1.8185223710112277e-05,5.032072574785559e-06,Unknown
0.02881730799999982,8.411861057962305e-06,3.026825271598465e-06,1.0526638766887944e-05,1.48620534603036e-05,1.763117804073783e-05,5.008426550252185e-06,Unknown
0.029336537999999912,8.405443992763221e-06,3.015495979468872e-06,1.051677340862261e-05,1.4835787005544744e-05,1.6976828170623454e-05,4.979442007716585e-06,Unknown
0.029855769000000087,8.404903868812634e-06,3.00657322453562e-06,1.0508815990730722e-05,1.4818723039534537e-05,1.629714695435655e-05,4.958045438072411e-06,Unknown
0.030374999999999375,8.392614007004876e-06,2.9999277877723708e-06,1.0499438523730475e-05,1.4811720082360968e-05,1.5774803654235565e-05,4.954209931400601e-06,Unknown
0.03089423099999955,8.380696375776299e-06,2.9931952446658663e-06,1.048686890741357e-05,1.4810023235857878e-05,1.5536498733846107e-05,4.950445096678557e-06,Unknown
0.031413461999999726,8.379792591814535e-06,2.9859470859732274e-06,1.0474677804120402e-05,1.4810457666404502e-05,1.550420847837483e-05,4.920228996305071e-06,Unknown
0.03193269199999982,8.379478968470346e-06,2.9836698363043446e-06,1.047002319436165e-05,1.481270234694606e-05,1.5522437644072066e-05,4.880651405074684e-06,Unknown
0.032451922999999994,8.382925534098526e-06,2.9917855479029986e-06,1.0471707722910072e-05,1.4817217729815149e-05,1.5520797030666893e-05,4.865291802337064e-06,Unknown
0.03297115400000017,8.391223191783706e-06,3.00962732985636e-06,1.0472391155223358e-05,1.482308446132686e-05,1.553733197841484e-05,4.867417648383596e-06,Unknown
0.033490384999999456,8.385558406188676e-06,3.032261033421654e-06,1.0472662550371672e-05,1.482776026819899e-05,1.5596274916576284e-05,4.865953081447515e-06,Unknown
0.03400961499999955,8.367273537842076e-06,3.0568913737068463e-06,1.0472246550907053e-05,1.4830208469997704e-05,1.5632841621966497e-05,4.861625319491595e-06,Unknown
0.034528845999999724,8.350639414696764e-06,3.085857521682296e-06,1.0464398276303102e-05,1.4831947764923682e-05,1.561433316549883e-05,4.8616632190246165e-06,Unknown
0.0350480769999999,8.342788287798717e-06,3.121733897932628e-06,1.045321382595341e-05,1.483471304649156e-05,1.559031285258304e-05,4.862932897262005e-06,Unknown
0.035567308000000075,8.348941993742135e-06,3.159141157659889e-06,1.0450041206877652e-05,1.483754113405355e-05,1.5586414320958682e-05,4.862070438796336e-06,Unknown
0.03608653800000017,8.350017305002286e-06,3.1854019340094563e-06,1.045380656216959e-05,1.4838164993701355e-05,1.5586569305346324e-05,4.860942649245294e-06,Unknown
0.036605768999999455,8.335946545772464e-06,3.1970011386448154e-06,1.0458241969937971e-05,1.483674189561426e-05,1.5586987044731725e-05,4.860530729753124e-06,Unknown
0.03712499999999963,8.326832616787056e-06,3.2028078645335416e-06,1.046198286311279e-05,1.483465476505904e-05,1.5586895903739097e-05,4.8604555873172615e-06,Unknown
0.037644230999999806,8.324105147739923e-06,3.2095331439294183e-06,1.046581003722236e-05,1.4832744646021132e-05,1.5588468626552467e-05,4.860356418990151e-06,Unknown
0.03816346199999998,8.316762140918025e-06,3.219328131480311e-06,1.0472408244727024e-05,1.4832329290837302e-05,1.559796901916503e-05,4.860215239458432e-06,Unknown
0.038682692000000074,8.297423188465123e-06,3.2256381503643125e-06,1.0484297935331649e-05,1.4832383831463092e-05,1.5601695751431808e-05,4.860192397522189e-06,Unknown
0.03920192299999936,8.263512170739632e-06,3.2235296319220463e-06,1.050136832977114e-05,1.4827734800768424e-05,1.5591825745128064e-05,4.860294545703998e-06,Unknown
0.03972115399999954,8.238073180015072e-06,3.2221163547695107e-06,1.0520774311413648e-05,1.4818336754481256e-05,1.5598394755461296e-05,4.861788695821863e-06,Unknown
0.04024038499999971,8.234994841004068e-06,3.222153295253411e-06,1.0538549511539051e-05,1.4811266321756052e-05,1.564846856462041e-05,4.866800586279795e-06,Unknown
0.040759614999999805,8.239270526817754e-06,3.2185446953375187e-06,1.0552003345597675e-05,1.4809405811000369e-05,1.571330303787346e-05,4.874537710859447e-06,Unknown
0.04127884599999998,8.236527662685707e-06,3.2154824578938605e-06,1.0560040454172497e-05,1.480999516477788e-05,1.575038402258977e-05,4.881045694906469e-06,Unknown
0.041798077000000156,8.19794566905296e-06,3.213076891432588e-06,1.0563105189111362e-05,1.480940765841362e-05,1.575414032782549e-05,4.8828792601315984e-06,Unknown
0.04231730799999944,8.118068818113367e-06,3.208986553390602e-06,1.0563532480394223e-05,1.4805675363282817e-05,1.5716741395669127e-05,4.880296027506618e-06,Unknown
0.042836537999999535,8.055270540537e-06,3.205103248958611e-06,1.056254410927328e-05,1.480094897280099e-05,1.5626961399811235e-05,4.876657874465546e-06,Unknown
0.04335576899999971,8.046270735672839e-06,3.2044887896742622e-06,1.055935131808316e-05,1.4799668121448842e-05,1.5526358454502585e-05,4.874444201067287e-06,Unknown
0.043874999999999886,8.071605458136532e-06,3.2131196988383605e-06,1.0555015304421992e-05,1.4804400848904533e-05,1.546790296055319e-05,4.874039854842133e-06,Unknown
0.04439423100000006,8.120368549803104e-06,3.2351982583047622e-06,1.0551837631697866e-05,1.4813904802450764e-05,1.5446937934622233e-05,4.873926978456856e-06,Unknown
0.04491346199999935,8.185969858609148e-06,3.260424566115383e-06,1.0550621342306549e-05,1.482560433020965e-05,1.545295194902982e-05,4.873707777974398e-06,Unknown
0.04543269199999944,8.233806424842233e-06,3.2723307365028e-06,1.0550881537686248e-05,1.4838772046944412e-05,1.5501074731896628e-05,4.873646010627391e-06,Unknown
0.04595192299999962,8.250734152029087e-06,3.2734628755934264e-06,1.0552074739905323e-05,1.4853911577643648e-05,1.556163282376528e-05,4.86788346633278e-06,Unknown
0.04647115399999979,8.257556394904575e-06,3.272133321012401e-06,1.0555141686976067e-05,1.487192905444128e-05,1.5581174271712995e-05,4.857238302968224e-06,Unknown
0.04699038499999997,8.264219124936736e-06,3.277329787583152e-06,1.0560650926500035e-05,1.4895081924150466e-05,1.555856138408343e-05,4.844985007010706e-06,Unknown
0.04750961500000006,8.27513078405823e-06,3.3043545474831053e-06,1.0565545350537674e-05,1.492560006240652e-05,1.551674318757016e-05,4.811693827027369e-06,Unknown
0.04802884599999935,8.279338180981362e-06,3.341837565897321e-06,1.0567367377601036e-05,1.496013783045062e-05,1.546691537951857e-05,4.757758639528085e-06,Unknown
0.04854807699999952,8.254869721673169e-06,3.366497651202487e-06,1.0568217224517588e-05,1.4988387501646228e-05,1.542863108745156e-05,4.73050275080237e-06,Unknown
0.0490673079999997,8.220795718908486e-06,3.3782539586646515e-06,1.0570859496732198e-05,1.500311677214045e-05,1.5422851995012768e-05,4.741300307502707e-06,Unknown
0.04958653799999979,8.201203799871464e-06,3.3843368897811234e-06,1.0577213206788932e-05,1.5006177215855024e-05,1.54312544410255e-05,4.746861613481453e-06,Unknown
0.05010576899999997,8.186588236707315e-06,3.386248954700691e-06,1.0585939088617618e-05,1.5001003498113833e-05,1.5426366507586773e-05,4.74022882326411e-06,Unknown
0.05062500000000014,8.162597777724606e-06,3.3840190032420195e-06,1.0592470625393136e-05,1.4988756067646408e-05,1.5421357609442537e-05,4.740414656659535e-06,Unknown
0.05114423099999943,8.117555458571463e-06,3.379880282356836e-06,1.0594738170479412e-05,1.497105829534722e-05,1.542230756700927e-05,4.732739179179383e-06,Unknown
0.051663461999999605,8.082963237751436e-06,3.3769741337544227e-06,1.0594704436643815e-05,1.495072839401488e-05,1.5408344730250712e-05,4.718656099897439e-06,Unknown
0.0521826919999997,8.116079208942522e-06,3.3753095946438102e-06,1.0596332675708145e-05,1.4930917806284269e-05,1.537689841280466e-05,4.720167425590673e-06,Unknown
0.05270192299999987,8.198354071497833e-06,3.373616542402973e-06,1.060180124440004e-05,1.4912927754961656e-05,1.5343958132968387e-05,4.691525860959751e-06,Unknown
0.05322115400000005,8.276117493293788e-06,3.372735134441227e-06,1.0608180602079575e-05,1.4894533544481116e-05,1.5322371514501776e-05,4.570491169881756e-06,Unknown
0.053740384999999335,8.337225879848629e-06,3.372669993973996e-06,1.0611389948536835e-05,1.4870667990930072e-05,1.5317619972368046e-05,4.40606700227988e-06,Unknown
0.05425961499999943,8.389833439513407e-06,3.373218122391386e-06,1.0612491925797364e-05,1.4836684307025136e-05,1.5325612512474866e-05,4.306138226404206e-06,Unknown
0.054778845999999604,8.45540674149922e-06,3.378018166083001e-06,1.0614236755595604e-05,1.4794689360467945e-05,1.5324996142043606e-05,4.286910614778623e-06,Unknown
0.05529807699999978,8.548955101187372e-06,3.3857865039186065e-06,1.0614979553667072e-05,1.4754555478267988e-05,1.529472353935706e-05,4.288394966210926e-06,Unknown
0.055817307999999954,8.660100928911469e-06,3.390423714423591e-06,1.061192119297332e-05,1.4723413699834428e-05,1.5249695600785894e-05,4.288145818553411e-06,Unknown
0.05633653800000005,8.782277817583591e-06,3.392072411119114e-06,1.0608158251656272e-05,1.4698985286298742e-05,1.5223437671057724e-05,4.271701898763851e-06,Unknown
0.056855768999999334,8.905008560818694e-06,3.393343340321514e-06,1.0607430332484936e-05,1.467531184822645e-05,1.5220272738778692e-05,4.197919461035933e-06,Unknown
0.05737499999999951,9.00361356642047e-06,3.3956645484712604e-06,1.0607426946411856e-05,1.4650796107442166e-05,1.5223521785717052e-05,4.104877260883867e-06,Unknown
0.057894230999999685,9.062248984840302e-06,3.398234494965635e-06,1.060778820731957e-05,1.463148555912412e-05,1.522671210953078e-05,4.075480781637728e-06,Unknown
0.05841346199999986,9.0830051240193e-06,3.398378082816857e-06,1.060661192555122e-05,1.4623178681267372e-05,1.5226853897524948e-05,4.081434871346521e-06,Unknown
0.05893269199999995,9.087071255359953e-06,3.398039474642103e-06,1.0599128478535734e-05,1.4623079443991638e-05,1.5218429105621664e-05,4.052753845553735e-06,Unknown
0.05945192300000013,9.09861201393616e-06,3.3978430980877223e-06,1.0588942322323742e-05,1.4625638580797968e-05,1.5209812259955532e-05,4.002936031698173e-06,Unknown
0.059971153999999416,9.109166129182395e-06,3.398115751748485e-06,1.0579076264780052e-05,1.462804649873701e-05,1.5216497163968148e-05,3.974307458874543e-06,Unknown
0.06049038499999959,9.10194002197842e-06,3.406642042731515e-06,1.0566412007289674e-05,1.4628329074336983e-05,1.5235595187372372e-05,3.967729505169785e-06,Unknown
0.061009614999999684,9.10010203333158e-06,3.421299119454109e-06,1.0549500745805024e-05,1.462497760120834e-05,1.5252291809973545e-05,3.966810682255694e-06,Unknown
0.06152884599999986,9.115029512217484e-06,3.425231856017798e-06,1.0526837693453131e-05,1.4619283624878934e-05,1.5260390604432865e-05,3.968754359692294e-06,Unknown
0.062048077000000035,9.123561094864544e-06,3.4132180545646777e-06,1.0495956254589038e-05,1.4615575055681155e-05,1.5262464735378897e-05,3.973779208610533e-06,Unknown
0.06256730799999932,9.11584264656995e-06,3.39988735746731e-06,1.0453665026429482e-05,1.461621821162844e-05,1.526514376523817e-05,3.973656044783676e-06,Unknown
0.06308653799999941,9.0947091625276e-06,3.3977867028704726e-06,1.039639008201524e-05,1.4617581744383117e-05,1.5273426482966467e-05,3.970325965183814e-06,Unknown
0.06360576899999959,9.095812396303964e-06,3.40371578350802e-06,1.0335224974701222e-05,1.4614103579116956e-05,1.5284346074717035e-05,3.972455461443805e-06,Unknown
0.06412499999999977,9.150136211664668e-06,3.405499705350002e-06,1.0291801948650168e-05,1.460518482038974e-05,1.5292442217851254e-05,3.97479800780637e-06,Unknown
0.06464423099999994,9.2181427903434e-06,3.401534375884782e-06,1.0270047294752795e-05,1.4593058109710012e-05,1.529590698137682e-05,3.9741611705319794e-06,Unknown
0.06516346200000012,9.268936824031214e-06,3.4026412144067893e-06,1.0260725461088163e-05,1.4574886448047817e-05,1.5296085990590168e-05,3.973977980725143e-06,Unknown
0.06568269199999932,9.309140741665232e-06,3.406419946186933e-06,1.0258050405321538e-05,1.4539359147281751e-05,1.5295944286697797e-05,3.975319534509966e-06,Unknown
0.0662019229999995,9.341137794179186e-06,3.404173880546526e-06,1.0255927465339528e-05,1.4475068459245706e-05,1.52955695177121e-05,3.9837040651321e-06,Unknown
0.06672115399999967,9.391903815117126e-06,3.4025372719969826e-06,1.0254289109968972e-05,1.4387011850903498e-05,1.529455574619274e-05,4.001698451040081e-06,Unknown
0.06724038499999985,9.477555028644697e-06,3.404452345315424e-06,1.0259146769662057e-05,1.429662662855346e-05,1.529835045731665e-05,4.023590154249441e-06,Unknown
0.06775961499999994,9.560124906767416e-06,3.4034125363077114e-06,1.0266159602362628e-05,1.4219109676225493e-05,1.5303597024510347e-05,4.044765108370235e-06,Unknown
0.06827884600000012,9.61383468566314e-06,3.400748321397594e-06,1.0262795574636315e-05,1.4152406359204596e-05,1.5293231161168204e-05,4.062346909479222e-06,Unknown
0.0687980769999994,9.64469340961745e-06,3.4000347943840323e-06,1.0243857714830968e-05,1.409482434768615e-05,1.5266719771013593e-05,4.0712725379685645e-06,Unknown
0.06931730799999958,9.660049956847357e-06,3.4004423995324613e-06,1.02200397649441e-05,1.4052198323794272e-05,1.524271750098654e-05,4.070551431851395e-06,Unknown
0.06983653799999967,9.667919784480944e-06,3.400824508546324e-06,1.020573487442572e-05,1.4025153089252984e-05,1.5229354883657355e-05,4.0657050241480464e-06,Unknown
0.07035576899999985,9.661988902905868e-06,3.399165698831707e-06,1.020182233676228e-05,1.401389872204372e-05,1.5222152145768046e-05,4.05926724625672e-06,Unknown
0.07087500000000002,9.63602813956879e-06,3.396334454031051e-06,1.0200851004966991e-05,1.4027542132429616e-05,1.5215102694596592e-05,4.052788985913449e-06,Unknown
0.07139423099999931,9.610924455660295e-06,3.398705290287372e-06,1.0199440716409696e-05,1.407425016420354e-05,1.5201144470691302e-05,4.050647488036391e-06,Unknown
0.07191346199999948,9.598496297833292e-06,3.407926930473689e-06,1.0196083500217762e-05,1.414613646579173e-05,1.5177921897198069e-05,4.05055498380887e-06,Unknown
0.07243269199999958,9.58990495486605e-06,3.4187953847871816e-06,1.0191459384531584e-05,1.421761750008894e-05,1.5152002190293213e-05,4.046714431522587e-06,Unknown
0.07295192299999975,9.57957702453824e-06,3.4266436570256327e-06,1.0193758434826263e-05,1.4259529756720355e-05,1.5129008121794636e-05,4.038686644452631e-06,Unknown
0.07347115399999993,9.562592607825876e-06,3.4311082152490187e-06,1.0199664321788155e-05,1.424467200928668e-05,1.5107332139148353e-05,4.028452504308967e-06,Unknown
0.0739903850000001,9.5392488013173e-06,3.435003155837828e-06,1.0196228896448488e-05,1.4151965248473448e-05,1.5083945087603096e-05,4.010124795078551e-06,Unknown
0.07450961499999931,9.517164647522569e-06,3.4401934006541605e-06,1.018692485260826e-05,1.4016652181222626e-05,1.5061101785154244e-05,3.960210212393359e-06,Unknown
0.07502884599999948,9.497478044075573e-06,3.444125979534038e-06,1.0178891031586062e-05,1.3972627460911594e-05,1.5049023461877544e-05,3.875557970076493e-06,Unknown
0.07554807699999966,9.484315640215768e-06,3.4457349547905844e-06,1.0170960741606853e-05,1.4122229340061329e-05,1.5050947097994706e-05,3.797525491551264e-06,Unknown
0.07606730799999983,9.490507594108195e-06,3.4463491121259845e-06,1.0161553224021049e-05,1.4380383011636038e-05,1.5051902912303097e-05,3.744915459620028e-06,Unknown
0.07658653799999993,9.504845428789708e-06,3.440795982564462e-06,1.0144567564019232e-05,1.4600230617700628e-05,1.504729642406734e-05,3.718791110884165e-06,Unknown
0.0771057690000001,9.50549645329728e-06,3.4256338657618623e-06,1.0092522864978649e-05,1.4740988535429323e-05,1.5048346967630133e-05,3.755489743097885e-06,Unknown
0.07762499999999939,9.50161672625363e-06,3.402883613239941e-06,9.913943921050572e-06,1.4835670217479216e-05,1.5051027873844558e-05,3.837157477173712e-06,Unknown
0.07814423099999956,9.502223260745293e-06,3.371647350049623e-06,9.426455322521324e-06,1.4909769249396413e-05,1.5048367016234214e-05,3.888841078198773e-06,Unknown
0.07866346199999974,9.50218388187519e-06,3.3351088726627686e-06,8.538384094289538e-06,1.495951420663417e-05,1.5047806536729611e-05,3.902366957570752e-06,Unknown
0.07918269199999983,9.504305313992732e-06,3.308647847892631e-06,7.530279644672834e-06,1.4978332602315143e-05,1.5049407355500544e-05,3.914953338096088e-06,Unknown
0.07970192300000001,9.50166099439734e-06,3.302714401343722e-06,6.845347184916476e-06,1.4977184228994613e-05,1.5031608330372411e-05,3.94135267091933e-06,Unknown
0.08022115400000018,9.4860398336775e-06,3.3077295851945797e-06,6.54962075887766e-06,1.4980082737277128e-05,1.4958871471813952e-05,3.973421176549133e-06,Unknown
0.08074038499999947,9.469587719355344e-06,3.31049144616502e-06,6.424870729634231e-06,1.5008259691420572e-05,1.4800831875966433e-05,3.988220314057048e-06,Unknown
0.08125961499999956,9.460442299344664e-06,3.310325680047804e-06,6.323295178403829e-06,1.5047913068806591e-05,1.456405926467037e-05,3.982699375947173e-06,Unknown
0.08177884599999974,9.452453266995396e-06,3.302011824045973e-06,6.204491274056564e-06,1.5051831965933292e-05,1.430618076078371e-05,4.010279384746526e-06,Unknown
0.08229807699999991,9.433827716894266e-06,3.2716041846712885e-06,6.10077771974188e-06,1.503434911489728e-05,1.4089665084784052e-05,4.1523463579009605e-06,Unknown
0.08281730800000009,9.396273998481384e-06,3.2384878436616768e-06,6.046956777042102e-06,1.510719375298666e-05,1.3927728454752144e-05,4.421091703590212e-06,Unknown
0.08333653800000018,9.355932510898307e-06,3.2307564899406268e-06,6.034631396460734e-06,1.5311018518139085e-05,1.3789868076218592e-05,4.718141387720547e-06,Unknown
0.08385576899999947,9.33537294839759e-06,3.230183694986784e-06,6.038174396118066e-06,1.5525642922620437e-05,1.3637445928297651e-05,4.940608946904194e-06,Unknown
0.08437499999999964,9.33462898263501e-06,3.224793633557044e-06,6.039254766532352e-06,1.563110306423796e-05,1.3467906063083104e-05,5.072567051520753e-06,Unknown
0.08489423099999982,9.342481501448193e-06,3.223731176125981e-06,6.03489389565982e-06,1.5610732350772285e-05,1.3340748962109069e-05,5.150249652644407e-06,Unknown
0.085413462,9.344268996922926e-06,3.2253602345336397e-06,6.024335617646855e-06,1.5499012390934563e-05,1.3305925633196526e-05,5.199610159086885e-06,Unknown
0.08593269200000009,9.33398109806304e-06,3.231632979061326e-06,5.9953572770647465e-06,1.5332673917968012e-05,1.330425949908799e-05,5.222460645076999e-06,Unknown
0.08645192299999938,9.323145146007918e-06,3.2402792359366426e-06,5.937689108041753e-06,1.5143221618384064e-05,1.3224329064125106e-05,5.22160562325628e-06,Unknown
0.08697115399999955,9.323505795519446e-06,3.2448471710238706e-06,5.8540164713711e-06,1.4950788493840718e-05,1.3057264576568449e-05,5.212420339899506e-06,Unknown
0.08749038499999973,9.339875243999104e-06,3.2467391391559942e-06,5.758375813560576e-06,1.4754064585244563e-05,1.2911504631560445e-05,5.202739599706691e-06,Unknown
0.08800961499999982,9.362076378409717e-06,3.2483903313604048e-06,5.664483916498549e-06,1.4540142939380552e-05,1.2859711897587526e-05,5.189379128268206e-06,Unknown
0.088528846,9.36084343952755e-06,3.2505675994853606e-06,5.5702185376438215e-06,1.4307425480966544e-05,1.2858674631741089e-05,5.169868232956606e-06,Unknown
0.08904807700000017,9.339510032790504e-06,3.2494562758702805e-06,5.46125930179885e-06,1.4078690362521716e-05,1.2844998447620212e-05,5.149126036301766e-06,Unknown
0.08956730799999946,9.334832300358517e-06,3.2450962055093173e-06,5.3288137791632485e-06,1.3890110067456196e-05,1.2811027751202029e-05,5.136090000429251e-06,Unknown
0.09008653799999955,9.342793197053805e-06,3.2455901202294477e-06,5.181284947610782e-06,1.375845571896504e-05,1.2778847174292024e-05,5.131824691463638e-06,Unknown
0.09060576899999973,9.344991645212284e-06,3.2493025285315346e-06,5.037866093237408e-06,1.366827630492984e-05,1.2764195172445735e-05,5.130768832523101e-06,Unknown
0.0911249999999999,9.330338885678112e-06,3.2472702499696683e-06,4.91236906898794e-06,1.3596435449793812e-05,1.2764031340783432e-05,5.130129582956211e-06,Unknown
0.09164423100000008,9.285993176794802e-06,3.237713373890384e-06,4.81642277323761e-06,1.3535669031874004e-05,1.2755073411494866e-05,5.131016054409278e-06,Unknown
0.09216346199999936,9.257955452411892e-06,3.234907080133902e-06,4.764708807400165e-06,1.34954940637428e-05,1.2715495139970928e-05,5.132043768486274e-06,Unknown
0.09268269199999946,9.291886856487471e-06,3.257068126176965e-06,4.750114536588382e-06,1.3485700760396874e-05,1.266751563560017e-05,5.131158370375205e-06,Unknown
0.09320192299999963,9.351613662993836e-06,3.2907293135472883e-06,4.748052472788107e-06,1.34980026999077e-05,1.264851613143347e-05,5.1327660702888604e-06,Unknown
0.0937211539999998,9.399810730634017e-06,3.311981604866357e-06,4.747079774296182e-06,1.351114501572472e-05,1.2652288471406742e-05,5.14397995348642e-06,Unknown
0.09424038499999998,9.435728317536394e-06,3.322623222817428e-06,4.745115355405816e-06,1.3514837322335963e-05,1.2670428219985629e-05,5.166420010855585e-06,Unknown
0.09475961500000007,9.469672733368568e-06,3.336062036112005e-06,4.744101159102582e-06,1.351432219306667e-05,1.270483325556194e-05,5.193647217558174e-06,Unknown
0.09527884599999936,9.5208170081308e-06,3.365694075131764e-06,4.744144865842002e-06,1.351464591744712e-05,1.271018096547351e-05,5.218423944628637e-06,Unknown
0.09579807699999954,9.586903676029583e-06,3.4136078198701357e-06,4.74279927562289e-06,1.3516632555181622e-05,1.262003740864472e-05,5.238239996160037e-06,Unknown
0.09631730799999971,9.64741572900265e-06,3.462332467970369e-06,4.742479416323792e-06,1.3521007782296729e-05,1.2417317048113584e-05,5.253480712856456e-06,Unknown
0.0968365379999998,9.700308542528909e-06,3.4944859026120525e-06,4.742567366166177e-06,1.3528464258416189e-05,1.2158613321329568e-05,5.26489153847052e-06,Unknown
0.09735576899999998,9.744185683378748e-06,3.507184203503736e-06,4.741318785939932e-06,1.353526649225697e-05,1.1934497629999764e-05,5.271059347182247e-06,Unknown
0.09787500000000016,9.76465562959591e-06,3.507080837497023e-06,4.729882227792836e-06,1.3532510057251918e-05,1.1779122299309276e-05,5.272233214196463e-06,Unknown
0.09839423099999944,9.767887095566788e-06,3.502285919997877e-06,4.686165928053767e-06,1.3517854689167982e-05,1.1657349863579113e-05,5.272205769838261e-06,Unknown
0.09891346199999962,9.767066081112148e-06,3.498640211975708e-06,4.613086869865613e-06,1.349914991087692e-05,1.1532745052020908e-05,5.271734005253757e-06,Unknown
0.09943269199999971,9.756593372064728e-06,3.498889823549578e-06,4.552052465426233e-06,1.3483689519745226e-05,1.142706027597588e-05,5.268780073773172e-06,Unknown
0.09995192299999989,9.741204583355948e-06,3.504022583739045e-06,4.530463776763015e-06,1.3474096441087026e-05,1.1396857400667682e-05,5.264077948126994e-06,Unknown
0.10047115400000006,9.72121403809084e-06,3.517099323001014e-06,4.531703579549765e-06,1.347298995620808e-05,1.1392102695248422e-05,5.2603773735395765e-06,Unknown
0.10099038499999935,9.702011517609694e-06,3.5417842814889864e-06,4.533731967227802e-06,1.3483661403236548e-05,1.1326207682787534e-05,5.258490589510022e-06,Unknown
0.10150961499999944,9.725876268349916e-06,3.5660327918964834e-06,4.531818737790284e-06,1.3502963972071929e-05,1.1249546285637642e-05,5.257547554499388e-06,Unknown
0.10202884599999962,9.786737966104096e-06,3.569629798224348e-06,4.5072115554307725e-06,1.35221772087573e-05,1.1225065420843828e-05,5.256946492680464e-06,Unknown
0.1025480769999998,9.827655173279423e-06,3.5578138926271936e-06,4.438009316974104e-06,1.353802310311913e-05,1.1225701222229344e-05,5.256844399711103e-06,Unknown
0.10306730799999997,9.83594955384729e-06,3.5508778033060857e-06,4.347704870160102e-06,1.3553236486330304e-05,1.12262282896139e-05,5.256979872813426e-06,Unknown
0.10358653800000006,9.832728568333198e-06,3.561463476651656e-06,4.284531820843952e-06,1.3570009422369893e-05,1.1227494830354312e-05,5.256203808819668e-06,Unknown
0.10410576899999935,9.849920434362404e-06,3.593935430689322e-06,4.2647525969082e-06,1.3587492542118137e-05,1.1231859396067064e-05,5.256224855156637e-06,Unknown
0.10462499999999952,9.899240916204805e-06,3.628576426587533e-06,4.27126647001406e-06,1.3602907834876953e-05,1.12381444614132e-05,5.263150913215235e-06,Unknown
0.1051442309999997,9.941871142726887e-06,3.641738583036836e-06,4.283369918041599e-06,1.361118629672904e-05,1.124122814944893e-05,5.282851312596567e-06,Unknown
0.10566346199999987,9.95912087557882e-06,3.6420606687357975e-06,4.292679127063692e-06,1.3605864577033033e-05,1.1239520566041818e-05,5.309575074241288e-06,Unknown
0.10618269199999997,9.97230307840208e-06,3.6426437106798553e-06,4.290522960285336e-06,1.3589124734017348e-05,1.1215081301247212e-05,5.322646601410571e-06,Unknown
0.10670192300000014,9.989415953528476e-06,3.6408748233616432e-06,4.253387776025158e-06,1.3571574274424527e-05,1.1118251082099135e-05,5.32215156198569e-06,Unknown
0.10722115399999943,1.001647973456852e-05,3.640600381768977e-06,4.18129237261311e-06,1.3555602739896647e-05,1.0927238226809845e-05,5.3409413240327865e-06,Unknown
0.1077403849999996,1.0049616802041417e-05,3.649015147577388e-06,4.117984066839983e-06,1.3538947937191634e-05,1.0714092815784302e-05,5.3827322579944994e-06,Unknown
0.1082596149999997,1.0060534779565068e-05,3.661951681663744e-06,4.094334949369862e-06,1.35292782626179e-05,1.0575808716672616e-05,5.4145229045003005e-06,Unknown
0.10877884599999987,1.0052338087511417e-05,3.671414134703092e-06,4.093780086214478e-06,1.354202635026576e-05,1.051943251414651e-05,5.424472170126995e-06,Unknown
0.10929807700000005,1.0048613971566436e-05,3.671236822771092e-06,4.091220278986846e-06,1.3584705916965237e-05,1.0494075601586604e-05,5.424234981294059e-06,Unknown
0.10981730799999934,1.0048576965674525e-05,3.6568489230412738e-06,4.08678404353597e-06,1.3628402661797418e-05,1.046198943176796e-05,5.422856996609233e-06,Unknown
0.11033653799999943,1.004706062675108e-05,3.637158592570648e-06,4.0877032641612165e-06,1.363589472086758e-05,1.040304530354764e-05,5.422563015645079e-06,Unknown
0.1108557689999996,1.0036131463761349e-05,3.626995304926808e-06,4.091344812393558e-06,1.3620779796571172e-05,1.0341615665732091e-05,5.423103085618043e-06,Unknown
0.11137499999999978,1.0012607833172888e-05,3.6250831077000863e-06,4.091445059802895e-06,1.3613176037217936e-05,1.0322274212007973e-05,5.42412594408973e-06,Unknown
0.11189423099999996,9.993569586110085e-06,3.62463694601054e-06,4.082237294673978e-06,1.3615260079121252e-05,1.0324169202280066e-05,5.425161831975907e-06,Unknown
0.11241346200000013,9.987323506991406e-06,3.6263589869914176e-06,4.066373487798167e-06,1.361994803048903e-05,1.0291110309950885e-05,5.425605325330342e-06,Unknown
0.11293269199999934,9.992097387413064e-06,3.635042175267039e-06,4.055076803489729e-06,1.3623543907114395e-05,1.0196842849413432e-05,5.425695279791609e-06,Unknown
0.11345192299999951,1.0011065482653308e-05,3.653765715224049e-06,4.047032419744269e-06,1.362195113399121e-05,1.003479460890101e-05,5.426068095354477e-06,Unknown
0.11397115399999969,1.0034151182795863e-05,3.670308691061497e-06,4.0287084612548326e-06,1.3614126269516707e-05,9.833778314124088e-06,5.429582415370208e-06,Unknown
0.11449038499999986,1.004814391345458e-05,3.666239771680812e-06,3.980529099107195e-06,1.3606280382357666e-05,9.676016620691431e-06,5.4392170577621805e-06,Unknown
0.11500961499999995,1.0054643587380763e-05,3.650806251162362e-06,3.894448273452001e-06,1.360104188238465e-05,9.615080747368012e-06,5.448964036139848e-06,Unknown
0.11552884600000013,1.006241208715204e-05,3.643484384552868e-06,3.823686998013904e-06,1.3595535616828043e-05,9.611952629551323e-06,5.4520195572659634e-06,Unknown
0.11604807699999942,1.0086269620657316e-05,3.642221128298273e-06,3.814196248934077e-06,1.359104657744077e-05,9.612780340216236e-06,5.451849550676658e-06,Unknown
0.11656730799999959,1.0120932567871324e-05,3.6449966356672007e-06,3.832310788494752e-06,1.3590288859485971e-05,9.60905676137503e-06,5.452423079954725e-06,Unknown
0.11708653799999968,1.0131504180375363e-05,3.654621953787361e-06,3.844888372456678e-06,1.3593972504932544e-05,9.606134685286211e-06,5.45246050154515e-06,Unknown
0.11760576899999986,1.011362808385554e-05,3.662009781987486e-06,3.846549156337782e-06,1.360103390400083e-05,9.603441565506523e-06,5.4516588957204e-06,Unknown
0.11812500000000004,1.009809719962988e-05,3.6642477810469286e-06,3.839324856530709e-06,1.3605067052791377e-05,9.599098112158598e-06,5.449182958148272e-06,Unknown
0.11864423099999932,1.0093460239497529e-05,3.671586990411668e-06,3.838433676549387e-06,1.3599402252919169e-05,9.594838160710386e-06,5.442138425412614e-06,Unknown
0.1191634619999995,1.0092261268639648e-05,3.6834687472294415e-06,3.852799485581564e-06,1.3588451926362478e-05,9.593399241893734e-06,5.433511065573892e-06,Unknown
0.11968269199999959,1.0084126666657176e-05,3.69390773977152e-06,3.871490838135604e-06,1.3580045220913293e-05,9.592488892551113e-06,5.426737664495362e-06,Unknown
0.12020192299999977,1.0054813580656696e-05,3.699901770999832e-06,3.881823568868e-06,1.3574559099501436e-05,9.59096041196616e-06,5.4146075304654105e-06,Unknown
0.12072115399999994,1.0024911797487732e-05,3.6992086484599615e-06,3.882693280138842e-06,1.3570479245224262e-05,9.58287217337269e-06,5.38556229396372e-06,Unknown
0.12124038500000012,1.002480291712245e-05,3.698900355207767e-06,3.881690267991742e-06,1.3567907163551918e-05,9.564463653005031e-06,5.337010636686352e-06,Unknown
0.12175961499999932,1.0036111559009472e-05,3.6986667821464383e-06,3.884381110616216e-06,1.3568612841806914e-05,9.552832671577894e-06,5.297155541904951e-06,Unknown
0.1222788459999995,1.0032480383068797e-05,3.6908421628747514e-06,3.889687481959851e-06,1.3576136136128976e-05,9.552857552536456e-06,5.294837183170452e-06,Unknown
0.12279807699999967,1.0015965031678774e-05,3.682419345432434e-06,3.894396671594346e-06,1.3589360842714846e-05,9.551757209332288e-06,5.271669784625471e-06,Unknown
0.12331730799999985,9.996511224683533e-06,3.683837367503653e-06,3.894805828159474e-06,1.3600325582751604e-05,9.551787104491236e-06,5.154575010045586e-06,Unknown
0.12383653799999994,9.988509220049225e-06,3.692876054346797e-06,3.896833151480743e-06,1.3604531130535853e-05,9.553444329480385e-06,5.004973575082074e-06,Unknown
0.12435576900000012,1.000040564404193e-05,3.701908850234524e-06,3.891407142564378e-06,1.3605069785242215e-05,9.551200845369443e-06,4.922683446036884e-06,Unknown
0.1248749999999994,1.002539320211331e-05,3.705376637558116e-06,3.856336032411911e-06,1.3605018133776117e-05,9.549606316945194e-06,4.901129356567861e-06,Unknown
0.12539423099999958,1.0054015689856182e-05,3.700232608394293e-06,3.813404921420904e-06,1.3604448600192186e-05,9.54954730544636e-06,4.8954862460761705e-06,Unknown
0.12591346199999975,1.007404358624435e-05,3.6976784087342672e-06,3.7934692406609055e-06,1.3602084802623783e-05,9.547365006351474e-06,4.888483481029331e-06,Unknown
0.12643269199999985,1.0078462072611255e-05,3.708966550162497e-06,3.7883410076540416e-06,1.3595031003046966e-05,9.549107148433804e-06,4.878649372943161e-06,Unknown
0.12695192300000002,1.0076022640340804e-05,3.726169858333698e-06,3.784528057122664e-06,1.3579294492243262e-05,9.549653203622303e-06,4.872239651033426e-06,Unknown
0.1274711539999993,1.0069016741953348e-05,3.739613865149777e-06,3.780305333579308e-06,1.3554680199998976e-05,9.52632046986384e-06,4.871247933026554e-06,Unknown
0.12799038499999948,1.0052595516254829e-05,3.7441060689074127e-06,3.777854456515577e-06,1.3531131697024967e-05,9.491635790573785e-06,4.870916808066294e-06,Unknown
0.12850961499999958,1.0019933220691762e-05,3.743714097898226e-06,3.776032717678633e-06,1.353184191693516e-05,9.481107408805806e-06,4.869251728663262e-06,Unknown
0.12902884599999975,9.946407051325324e-06,3.749758530841661e-06,3.775074259856796e-06,1.3579274491306553e-05,9.4801000294179e-06,4.870430020490012e-06,Unknown
0.12954807699999993,9.846407289494852e-06,3.7574368410049098e-06,3.7771616429282016e-06,1.3656279636111456e-05,9.466555233407828e-06,4.875177140003746e-06,Unknown
0.1300673080000001,9.788290422839632e-06,3.7579513136314327e-06,3.777899312848271e-06,1.3701966935936755e-05,9.46463789226459e-06,4.876849682344332e-06,Unknown
0.1305865379999993,9.787386025490056e-06,3.7599525962017967e-06,3.774167814357919e-06,1.3683185897664434e-05,9.459421866367044e-06,4.874246049178288e-06,Unknown
0.13110576899999948,9.795569586868407e-06,3.770663029749168e-06,3.768793552968987e-06,1.3636279211161053e-05,9.396496987426905e-06,4.871400414790314e-06,Unknown
0.13162499999999966,9.779032898475742e-06,3.782804438387321e-06,3.7636471883461497e-06,1.361142399641872e-05,9.294915872907292e-06,4.870117872638318e-06,Unknown
0.13214423099999983,9.743516468552974e-06,3.789370031450452e-06,3.7630641897597674e-06,1.362599220554839e-05,9.22189566904495e-06,4.869964466751143e-06,Unknown
0.132663462,9.724218417143073e-06,3.791898946591342e-06,3.780217319369769e-06,1.3688656458423148e-05,9.196008984607766e-06,4.870017345505568e-06,Unknown
0.1331826920000001,9.742981686731057e-06,3.794180802646241e-06,3.813337596583045e-06,1.3824220602277609e-05,9.19111642012302e-06,4.870771194136972e-06,Unknown
0.1337019229999994,9.780615878793662e-06,3.797251243854597e-06,3.8397782010643085e-06,1.405238789588568e-05,9.189154770981038e-06,4.870574085342568e-06,Unknown
0.13422115399999957,9.807474575130095e-06,3.801415639960169e-06,3.852224397731386e-06,1.4355674677058076e-05,9.190013395844804e-06,4.8690917911428175e-06,Unknown
0.13474038499999974,9.809464724461338e-06,3.808023804547501e-06,3.858379459842072e-06,1.4686376243037774e-05,9.184845879935126e-06,4.870836549289616e-06,Unknown
0.13525961499999983,9.79925749989136e-06,3.815938878436339e-06,3.859668530320071e-06,1.5000632470677624e-05,9.14065579514676e-06,4.875447167911695e-06,Unknown
0.135778846,9.80784067288518e-06,3.817951366409771e-06,3.859733203889975e-06,1.527848966583319e-05,9.011613787286558e-06,4.876692140561585e-06,Unknown
0.13629807700000018,9.839252460378385e-06,3.807358834762252e-06,3.863349163585154e-06,1.5520450574206855e-05,8.787853508584869e-06,4.872399972150932e-06,Unknown
0.13681730799999947,9.87018765999362e-06,3.78910458219724e-06,3.867351129938474e-06,1.572832810271405e-05,8.540080088535536e-06,4.865179643861269e-06,Unknown
0.13733653799999956,9.892209262702106e-06,3.776040627144487e-06,3.869910259592038e-06,1.5881913535604533e-05,8.365208713063639e-06,4.856974004781688e-06,Unknown
0.13785576899999974,9.90469253927302e-06,3.7730515225122415e-06,3.872326493788393e-06,1.594173023720938e-05,8.285426858036262e-06,4.852848595073393e-06,Unknown
0.13837499999999991,9.903132560506967e-06,3.773999360689943e-06,3.87494712744257e-06,1.593828040083637e-05,8.256615259216813e-06,4.8555816306766525e-06,Unknown
0.1388942310000001,9.886450858582247e-06,3.774599528904223e-06,3.87854038105586e-06,1.6116275463598054e-05,8.241938710291028e-06,4.8567903205632975e-06,Unknown
0.13941346199999938,9.840513368606904e-06,3.774865698080276e-06,3.884234912557861e-06,1.6793198484493286e-05,8.229695766764197e-06,4.856059643610748e-06,Unknown
0.13993269199999947,9.76045574211165e-06,3.7748018039716736e-06,3.8937296871605164e-06,1.7842837797463863e-05,8.2219914029866e-06,4.858153935817223e-06,Unknown
0.14045192299999965,9.68000268775151e-06,3.774976088680463e-06,3.905209661883906e-06,1.8702407370209463e-05,8.222675452883e-06,4.857108298740433e-06,Unknown
0.14097115399999982,9.619839338355866e-06,3.775416048125904e-06,3.911150340214596e-06,1.906259196685883e-05,8.228479050329022e-06,4.853440760400082e-06,Unknown
0.141490385,9.57722148952175e-06,3.7740755174038954e-06,3.907397801643956e-06,1.9110112357390964e-05,8.23054371683826e-06,4.850622232419662e-06,Unknown
0.1420096150000001,9.563050557016643e-06,3.7723950293111615e-06,3.894664466907745e-06,1.910988797750585e-05,8.224997633395522e-06,4.84533159738157e-06,Unknown
0.14252884599999938,9.569665115789058e-06,3.782207340243553e-06,3.8788226071786735e-06,1.9122650116448933e-05,8.218765203310863e-06,4.8414234377080485e-06,Unknown
0.14304807699999955,9.566858905330456e-06,3.804695772785052e-06,3.868424302968892e-06,1.9123180572837783e-05,8.217561568429119e-06,4.844836126217917e-06,Unknown
0.14356730799999973,9.541146183354396e-06,3.82648145610062e-06,3.865203487805525e-06,1.9117222916453617e-05,8.219831533590826e-06,4.85234237773347e-06,Unknown
0.14408653799999982,9.505000110816282e-06,3.846187063510089e-06,3.8686614614519e-06,1.912103473506198e-05,8.220511344737543e-06,4.8589331713079815e-06,Unknown
0.144605769,9.500486259846555e-06,3.871209541208141e-06,3.878380806443194e-06,1.913299279768134e-05,8.205576522661576e-06,4.8611635099045285e-06,Unknown
0.14512500000000017,9.54598766272352e-06,3.899300864541886e-06,3.892933241903186e-06,1.914470118857715e-05,8.17099201659915e-06,4.854069186649713e-06,Unknown
0.14564423099999946,9.604938100963834e-06,3.91473265455417e-06,3.905476574821593e-06,1.915350735059548e-05,8.139541145873974e-06,4.83545508550936e-06,Unknown
0.14616346199999963,9.653881756457087e-06,3.911401796584874e-06,3.906803337682989e-06,1.9162432664504414e-05,8.12336248481323e-06,4.81236769324685e-06,Unknown
0.14668269199999973,9.69332492345381e-06,3.902322481977936e-06,3.901929361617781e-06,1.919193808577248e-05,8.112137233115694e-06,4.801441939533889e-06,Unknown
0.1472019229999999,9.729736404258056e-06,3.898624583098258e-06,3.899021856808563e-06,1.9269069034543332e-05,8.094442052444797e-06,4.813217460113534e-06,Unknown
0.14772115400000008,9.783679405052451e-06,3.900223277156511e-06,3.899088849826149e-06,1.937073121165304e-05,8.076233738470736e-06,4.83384076306105e-06,Unknown
0.14824038499999936,9.841665986165934e-06,3.900416285972846e-06,3.907929172296962e-06,1.9432324273464945e-05,8.075910690521666e-06,4.84406478425166e-06,Unknown
0.14875961499999946,9.862726077135766e-06,3.900274315959283e-06,3.934182344672988e-06,1.94367157579614e-05,8.02663823087439e-06,4.844895174806723e-06,Unknown
0.14927884599999963,9.853161587254116e-06,3.9115569308659305e-06,3.97554833971179e-06,1.942290157271758e-05,7.797797264472889e-06,4.8436090724213815e-06,Unknown
0.1497980769999998,9.843759415317323e-06,3.938598444250229e-06,4.016174724456285e-06,1.9418197796103036e-05,7.423795700751704e-06,4.836491421197837e-06,Unknown
0.15031730799999998,9.83764878582632e-06,3.967544861211376e-06,4.03851785519091e-06,1.942448567543969e-05,7.128740074346634e-06,4.825951514146301e-06,Unknown
0.15083653800000008,9.82267470942044e-06,3.980687363079274e-06,4.040093133252605e-06,1.9441020978000477e-05,7.028489446580135e-06,4.823255294883716e-06,Unknown
0.15135576899999936,9.78741865110295e-06,3.978306160159216e-06,4.03456812365013e-06,1.9463267076258847e-05,7.022972599748454e-06,4.824604056237712e-06,Unknown
0.15187499999999954,9.737460690099663e-06,3.9714285180759154e-06,4.031656526153085e-06,1.947246968142427e-05,7.0187626100252654e-06,4.822974966586881e-06,Unknown
0.1523942309999997,9.69976942181882e-06,3.963699496625098e-06,4.033147624598715e-06,1.9459466850110875e-05,7.007307469545578e-06,4.823852450651079e-06,Unknown
0.1529134619999999,9.692157488771312e-06,3.956970860446155e-06,4.037838809981988e-06,1.944356760291082e-05,6.9892711464504575e-06,4.82973126863228e-06,Unknown
0.15343269199999998,9.71769905018284e-06,3.955266915792027e-06,4.040687304848591e-06,1.943091209531749e-05,6.943975191780434e-06,4.833700120422743e-06,Unknown
0.15395192300000016,9.773593781576816e-06,3.9570713629150606e-06,4.037470429841069e-06,1.941561592026492e-05,6.838608377691306e-06,4.831843059388682e-06,Unknown
0.15447115399999944,9.834369837428416e-06,3.958749988768942e-06,4.030627979428137e-06,1.941700905707378e-05,6.68882718746523e-06,4.830853271244859e-06,Unknown
0.15499038499999962,9.872131873260389e-06,3.958722533716523e-06,4.02538880644299e-06,1.944378060951493e-05,6.5714987699745256e-06,4.834904502726669e-06,Unknown
0.1555096149999997,9.891216120483262e-06,3.956617979024236e-06,4.023219268218319e-06,1.947366573289319e-05,6.535153640715685e-06,4.8382148473205815e-06,Unknown
0.1560288459999999,9.913735048922631e-06,3.95611554333728e-06,4.022270458722238e-06,1.949183636045981e-05,6.5352196064028445e-06,4.837806146563644e-06,Unknown
0.15654807700000006,9.973237148703564e-06,3.962086012325e-06,4.02223894589865e-06,1.95015098310996e-05,6.49912167014535e-06,4.835949487274359e-06,Unknown
0.15706730799999935,1.007661089571918e-05,3.9734673028574205e-06,4.021543748744593e-06,1.9508052877872965e-05,6.453547613667243e-06,4.83383820136738e-06,Unknown
0.15758653799999944,1.01535724290253e-05,3.981100750664255e-06,4.026927295154757e-06,1.951342032142984e-05,6.4526508283509e-06,4.831635309112642e-06,Unknown
0.15810576899999962,1.0165659869064956e-05,3.975704382469149e-06,4.052816321086594e-06,1.9517350685877066e-05,6.4007257210467e-06,4.830768266595197e-06,Unknown
0.1586249999999998,1.0161372232460944e-05,3.9596899609180266e-06,4.087319655172365e-06,1.951998174046419e-05,6.22809183422239e-06,4.833469093050016e-06,Unknown
0.15914423099999997,1.0161389172791544e-05,3.940020630349031e-06,4.109764644686992e-06,1.952270316865825e-05,6.0718951526756126e-06,4.837210058853965e-06,Unknown
0.15966346200000014,1.0165104025923689e-05,3.91656135932888e-06,4.120475873723846e-06,1.952655945796473e-05,6.0294190160216025e-06,4.837856649481047e-06,Unknown
0.16018269199999935,1.017791018675105e-05,3.88866934225069e-06,4.120883081970779e-06,1.953071406349884e-05,6.029373470550927e-06,4.837093399778041e-06,Unknown
0.16070192299999952,1.0177700841732716e-05,3.859854486894402e-06,4.111290740711391e-06,1.953271646868686e-05,6.024442563220453e-06,4.837291333495273e-06,Unknown
0.1612211539999997,1.0172374868951588e-05,3.837881572020697e-06,4.100899643931194e-06,1.953225540772768e-05,6.026334851813125e-06,4.838186807693328e-06,Unknown
0.16174038499999988,1.0184158244344995e-05,3.827288406512291e-06,4.091600066460397e-06,1.953181907640682e-05,6.028914577727655e-06,4.839025342320743e-06,Unknown
0.16225961499999997,1.019705825360606e-05,3.822458515521023e-06,4.079376718834347e-06,1.9531974031338306e-05,6.030263862270099e-06,4.839222505136682e-06,Unknown
0.16277884600000014,1.0203021906140852e-05,3.81888281200642e-06,4.06537415484904e-06,1.953167984151803e-05,6.028714002907514e-06,4.839111689433539e-06,Unknown
0.16329807699999943,1.021022346235107e-05,3.812078486476277e-06,4.0444921893572365e-06,1.9532404120175016e-05,5.991922159235011e-06,4.839163382657235e-06,Unknown
0.1638173079999996,1.022480460902288e-05,3.807787949673201e-06,4.006860962182281e-06,1.9535615883477137e-05,5.937395597855493e-06,4.839293496869526e-06,Unknown
0.1643365379999997,1.0257770452900348e-05,3.826545656494529e-06,3.95095659828239e-06,1.953880707487986e-05,5.9323592038100046e-06,4.839185259714783e-06,Unknown
0.16485576899999987,1.0310064941196427e-05,3.8603175809019545e-06,3.884319574329452e-06,1.953941211250357e-05,5.919583877410155e-06,4.837595171038946e-06,Unknown
0.16537500000000005,1.037032808958964e-05,3.884717404008179e-06,3.820460869072593e-06,1.953986337771213e-05,5.793053754724259e-06,4.83252592338351e-06,Unknown
0.16589423099999934,1.0429603081910486e-05,3.897245414419196e-06,3.773769470653268e-06,1.95425201548354e-05,5.617340443392232e-06,4.824949483479915e-06,Unknown
0.1664134619999995,1.0474874663755832e-05,3.903222291088527e-06,3.749928889484202e-06,1.954464883840957e-05,5.510049621148145e-06,4.818360088051453e-06,Unknown
0.1669326919999996,1.0493978268837618e-05,3.90803337633876e-06,3.7426194878092646e-06,1.9544586219101105e-05,5.472498209161527e-06,4.814508930199266e-06,Unknown
0.16745192299999978,1.0493780965277586e-05,3.91446396966677e-06,3.741807414686255e-06,1.9544046550176407e-05,5.458859168326202e-06,4.813182015449379e-06,Unknown
0.16797115399999996,1.0487426501326104e-05,3.920708552021837e-06,3.7420036873624783e-06,1.954329750930103e-05,5.444687967729123e-06,4.813610774549823e-06,Unknown
0.16849038500000013,1.0487211867335534e-05,3.92658838736007e-06,3.741786304543728e-06,1.954112090480084e-05,5.420130553105364e-06,4.815302756788036e-06,Unknown
0.16900961499999934,1.0499425374335531e-05,3.92944477624081e-06,3.74178856866719e-06,1.9535991287879346e-05,5.396352490880456e-06,4.818202670004907e-06,Unknown
0.1695288459999995,1.0495350694584563e-05,3.9210871791642725e-06,3.7438267674694183e-06,1.9527603301001924e-05,5.399932645334679e-06,4.821692331739903e-06,Unknown
0.1700480769999997,1.0454710473160372e-05,3.903935722869688e-06,3.744211464744485e-06,1.9517688645525637e-05,5.3836025659084855e-06,4.820853468347933e-06,Unknown
0.17056730799999986,1.0413660589549851e-05,3.894151499391923e-06,3.740724787161153e-06,1.9507368033780905e-05,5.248355341130098e-06,4.8137815411512185e-06,Unknown
0.17108653799999995,1.0396711326431971e-05,3.892906120141519e-06,3.7355150808927945e-06,1.949632149989163e-05,5.038815806903583e-06,4.81116877324422e-06,Unknown
0.17160576900000013,1.0391500497987404e-05,3.892226928187341e-06,3.726108083810095e-06,1.948431184811933e-05,4.908746043545264e-06,4.811377468931776e-06,Unknown
0.17212499999999942,1.0385573233148775e-05,3.884282359996027e-06,3.7129243701126047e-06,1.9471943609621277e-05,4.894186483642663e-06,4.8025728556587365e-06,Unknown
0.1726442309999996,1.0363832961735784e-05,3.856585881951072e-06,3.70107989973087e-06,1.945905115194362e-05,4.92133229335734e-06,4.7942477165899005e-06,Unknown
0.17316346199999977,1.0344813707838812e-05,3.821961690505353e-06,3.695151237934308e-06,1.944494241906024e-05,4.925321162870899e-06,4.794795750251216e-06,Unknown
0.17368269199999986,1.0370761149123356e-05,3.801202719581029e-06,3.692949332448173e-06,1.943188973314929e-05,4.884313787392095e-06,4.798467858717614e-06,Unknown
0.17420192300000004,1.042340131954646e-05,3.790883474637361e-06,3.6859065943882394e-06,1.9423329926237636e-05,4.830776120042807e-06,4.803849506964641e-06,Unknown
0.17472115399999932,1.0463303794328662e-05,3.785559926622605e-06,3.664793880528744e-06,1.94190060012903e-05,4.8038140017225495e-06,4.811548662430366e-06,Unknown
0.1752403849999995,1.0491753954682646e-05,3.782794088501105e-06,3.637335871011952e-06,1.9416343890143004e-05,4.798305186526316e-06,4.8189316536394295e-06,Unknown
0.1757596149999996,1.0523810744825842e-05,3.782473376399255e-06,3.6258358456657272e-06,1.9413235225300977e-05,4.7999806708253084e-06,4.823915886267584e-06,Unknown
0.17627884599999977,1.0571094302538096e-05,3.792758546463184e-06,3.630597755525283e-06,1.94085066587354e-05,4.797983705260978e-06,4.826464589752068e-06,Unknown
0.17679807699999994,1.0615323482263083e-05,3.816891536113882e-06,3.6342124926611895e-06,1.940324104673389e-05,4.773721648968168e-06,4.825532978503336e-06,Unknown
0.17731730800000012,1.0618562777125197e-05,3.845894410926917e-06,3.626974223428317e-06,1.939969452992148e-05,4.7414838375217485e-06,4.823297259413475e-06,Unknown
0.17783653799999932,1.058423726409211e-05,3.868581571488877e-06,3.6079037539428177e-06,1.939831522877889e-05,4.7248154679968125e-06,4.824392954584264e-06,Unknown
0.1783557689999995,1.054275802733781e-05,3.880469759193029e-06,3.586267667496617e-06,1.93987702655576e-05,4.711841133059961e-06,4.824298496631159e-06,Unknown
0.17887499999999967,1.0503583548492664e-05,3.88445551719021e-06,3.577244874119464e-06,1.940360032364185e-05,4.692359817782461e-06,4.820622980690055e-06,Unknown
0.17939423099999985,1.0457685692598204e-05,3.884450635261268e-06,3.591993841314162e-06,1.9419903853780336e-05,4.668068253743662e-06,4.82012584051864e-06,Unknown
0.17991346200000002,1.0396987826561408e-05,3.879635466830659e-06,3.634142989943461e-06,1.945095551596573e-05,4.644602374951276e-06,4.822987903103052e-06,Unknown
0.18043269200000012,1.0319621172540894e-05,3.8717839017699e-06,3.684748859547231e-06,1.9485663781074547e-05,4.633771399973595e-06,4.829701640149488e-06,Unknown
0.1809519229999994,1.0228846415899693e-05,3.867281321497774e-06,3.7144487002476233e-06,1.950922242700404e-05,4.636543403198699e-06,4.840266253081291e-06,Unknown
0.18147115399999958,1.0125735848851769e-05,3.866984280199804e-06,3.722588347912436e-06,1.9519787192899035e-05,4.643148145259631e-06,4.84781457475601e-06,Unknown
0.18199038499999975,1.0018067823085757e-05,3.864689832146456e-06,3.7240831905095855e-06,1.9523971644001635e-05,4.646074779532282e-06,4.851601042744773e-06,Unknown
0.18250961499999985,9.939284420543604e-06,3.858915889805951e-06,3.723655107933875e-06,1.9526242030555752e-05,4.643385639937882e-06,4.851649805870939e-06,Unknown
0.18302884600000002,9.905262782379625e-06,3.858661975163397e-06,3.722429364278892e-06,1.952745400540729e-05,4.63650807864358e-06,4.853621988175918e-06,Unknown
0.1835480769999993,9.88774711569172e-06,3.866017076149529e-06,3.720816144903593e-06,1.9527436651651768e-05,4.625788016263421e-06,4.866494124635254e-06,Unknown
0.18406730799999949,9.863920555015086e-06,3.870699562354301e-06,3.716756357116657e-06,1.952774424637281e-05,4.607996873362543e-06,4.879117582717336e-06,Unknown
0.18458653799999958,9.833902739188072e-06,3.870830962857079e-06,3.7075555153698328e-06,1.9529039549664168e-05,4.57338826546504e-06,4.881328327593818e-06,Unknown
0.18510576899999975,9.827775369760987e-06,3.87110012027208e-06,3.699856097075052e-06,1.9528324837675208e-05,4.51231279742489e-06,4.882130223378374e-06,Unknown
0.18562499999999993,9.869714899155533e-06,3.865861146090338e-06,3.70058865349564e-06,1.952988698684936e-05,4.43439171938948e-06,4.886649621892993e-06,Unknown
0.1861442310000001,9.912539109163662e-06,3.848776637106457e-06,3.6999988591925568e-06,1.9561118373358585e-05,4.364788019812563e-06,4.890240258155091e-06,Unknown
0.1866634619999994,9.920867225068624e-06,3.8248281473097895e-06,3.702076818840531e-06,1.966242446809205e-05,4.317808939282166e-06,4.88883174205456e-06,Unknown
0.18718269199999948,9.921512378986784e-06,3.806014728534048e-06,3.722994702731696e-06,1.9844493364335397e-05,4.283856025569327e-06,4.882864063663947e-06,Unknown
0.18770192299999966,9.930807429163784e-06,3.800534703145148e-06,3.7536835726070192e-06,2.0058420352159934e-05,4.244330510309802e-06,4.87974228666793e-06,Unknown
0.18822115399999984,9.949424353225076e-06,3.800343273162438e-06,3.7808139979351575e-06,2.022927320221391e-05,4.194656546860845e-06,4.881671766825971e-06,Unknown
0.188740385,9.957405179921896e-06,3.7945927534682e-06,3.7974986753513633e-06,2.032206238877551e-05,4.146265162439021e-06,4.882144415111864e-06,Unknown
0.1892596150000001,9.921363117960476e-06,3.792110092358209e-06,3.8067733614148792e-06,2.035591849266873e-05,4.11469333136642e-06,4.8809209495962085e-06,Unknown
0.1897788459999994,9.856765432879652e-06,3.798012310403449e-06,3.821881601576026e-06,2.036417395797464e-05,4.100848814176387e-06,4.880699812788478e-06,Unknown
0.19029807699999957,9.802820732634514e-06,3.802461412934742e-06,3.8335157100649135e-06,2.0365613195682364e-05,4.093797050318959e-06,4.880836516405924e-06,Unknown
0.19081730799999974,9.765183006055563e-06,3.809684037191631e-06,3.832911662720364e-06,2.0366282955893e-05,4.092391274903779e-06,4.879607262302719e-06,Unknown
0.19133653799999983,9.725626892383611e-06,3.8315604872901226e-06,3.833061020292731e-06,2.0366760438538227e-05,4.0905233127016e-06,4.872234224577549e-06,Unknown
0.191855769,9.664755585229423e-06,3.855829140614108e-06,3.83983277128314e-06,2.036711276473352e-05,4.076892344043742e-06,4.85760830715604e-06,Unknown
0.19237500000000018,9.579552737883673e-06,3.863703786187233e-06,3.840640891475287e-06,2.0379864284889116e-05,4.059241126846483e-06,4.841455128410649e-06,Unknown
0.19289423099999947,9.494569947342637e-06,3.862343425206767e-06,3.823139236043385e-06,2.0431103431188823e-05,4.055626829916869e-06,4.8297721573459575e-06,Unknown
0.19341346199999965,9.43596117276079e-06,3.864660951114333e-06,3.799718924999192e-06,2.052422767711791e-05,4.066157357365266e-06,4.8279102017747285e-06,Unknown
0.19393269199999974,9.41933005750132e-06,3.8689687008017685e-06,3.7864012379102144e-06,2.0617893456383956e-05,4.071730234857355e-06,4.839115349792249e-06,Unknown
0.19445192299999992,9.449197335891396e-06,3.8714313369922754e-06,3.7869739750255576e-06,2.066460833370147e-05,4.06880759907811e-06,4.856312490413052e-06,Unknown
0.1949711540000001,9.48986001819232e-06,3.872447719428431e-06,3.7996965686070927e-06,2.065165722689092e-05,4.076090875295637e-06,4.866711540512803e-06,Unknown
0.19549038499999938,9.506865864426586e-06,3.873381228192375e-06,3.808431038060423e-06,2.0591890934076765e-05,4.094832089558708e-06,4.86838456302632e-06,Unknown
0.19600961499999947,9.508434542944536e-06,3.874107762887759e-06,3.808682660469524e-06,2.0497546796668084e-05,4.106405342733922e-06,4.867754171051612e-06,Unknown
0.19652884599999965,9.511513787435664e-06,3.872199967764421e-06,3.8099824035465782e-06,2.037319790100421e-05,4.105647650332725e-06,4.867633628748966e-06,Unknown
0.19704807699999982,9.534903817349203e-06,3.867647554807996e-06,3.813576741157968e-06,2.0224273997855656e-05,4.099822457440146e-06,4.867822198844172e-06,Unknown
0.197567308,9.580794904787116e-06,3.865285405591599e-06,3.8187764601370215e-06,2.00659914715436e-05,4.0958601415290265e-06,4.868748748934949e-06,Unknown
0.1980865380000001,9.61420490119234e-06,3.866593014438084e-06,3.816848069859875e-06,1.99205489653335e-05,4.0950558290341165e-06,4.870957952344034e-06,Unknown
0.19860576899999938,9.620368696338726e-06,3.8673396787810605e-06,3.812878153139922e-06,1.9817108976537687e-05,4.0931009983531495e-06,4.869844578484312e-06,Unknown
0.19912499999999955,9.61955518970152e-06,3.865407486248744e-06,3.827060712057994e-06,1.9782436481341672e-05,4.088911067293636e-06,4.858905690579474e-06,Unknown
0.19964423099999973,9.619567659445458e-06,3.861111619784445e-06,3.854554273321887e-06,1.9793171540297807e-05,4.082006200497872e-06,4.848053020983008e-06,Unknown
0.2001634619999999,9.620835089318191e-06,3.855782587992839e-06,3.882596603989692e-06,1.9756260048265702e-05,4.07557430991474e-06,4.847400635677222e-06,Unknown
0.200682692,9.62273954001543e-06,3.8528471168317e-06,3.9079362683856255e-06,1.962437188461245e-05,4.098442040837946e-06,4.8448622713757565e-06,Unknown
0.20120192300000017,9.614516220938942e-06,3.8569797729729135e-06,3.921975796980238e-06,1.951089499003408e-05,4.16994044643317e-06,4.841540991557994e-06,Unknown
0.20172115399999946,9.600483114887987e-06,3.873445747052953e-06,3.918110973612599e-06,1.9570908127687785e-05,4.2407817694851664e-06,4.84035659552889e-06,Unknown
0.20224038499999963,9.597686173350122e-06,3.894353351867276e-06,3.899767324973381e-06,1.983319398574754e-05,4.264028680596594e-06,4.808199085963363e-06,Unknown
0.20275961499999973,9.608070546705388e-06,3.90271559637009e-06,3.875842007122238e-06,2.024566299935505e-05,4.25999002934596e-06,4.741977632910686e-06,Unknown
0.2032788459999999,9.62570414725685e-06,3.900696929969135e-06,3.852723609321296e-06,2.078136651527625e-05,4.255530872638245e-06,4.688157250199735e-06,Unknown
0.20379807700000008,9.645896344037452e-06,3.898711281715203e-06,3.83213156333499e-06,2.141266163827472e-05,4.251232962560933e-06,4.665777029912881e-06,Unknown
0.20431730799999936,9.65784678960441e-06,3.896704634450795e-06,3.815776309948482e-06,2.2014042865237225e-05,4.240503612913704e-06,4.658299759123427e-06,Unknown
0.20483653799999946,9.65779617531947e-06,3.8940610025691785e-06,3.803198726209348e-06,2.240986127161215e-05,4.219893381694312e-06,4.646064499057656e-06,Unknown
0.20535576899999963,9.661549355623625e-06,3.89275185817392e-06,3.791507695010032e-06,2.2558658986291957e-05,4.193030229275549e-06,4.624275302006947e-06,Unknown
0.2058749999999998,9.688984645985713e-06,3.895749818180647e-06,3.776720920729548e-06,2.256229633697084e-05,4.162830523421295e-06,4.611066433571845e-06,Unknown
0.20639423099999998,9.741304691770414e-06,3.903392468754589e-06,3.763572035539355e-06,2.253623337298618e-05,4.131553406696433e-06,4.611471034154135e-06,Unknown
0.20691346200000016,9.789478939361692e-06,3.910310642791089e-06,3.761430214059096e-06,2.263356673906193e-05,4.114381522965529e-06,4.581282365631103e-06,Unknown
0.20743269199999936,9.808877334952988e-06,3.913646264300442e-06,3.7616147921214217e-06,2.317099371293509e-05,4.124429010854926e-06,4.448243865556887e-06,Unknown
0.20795192299999954,9.811480950370814e-06,3.913779669304981e-06,3.760296921555173e-06,2.44655306682424e-05,4.137150174384847e-06,4.180054169693446e-06,Unknown
0.20847115399999971,9.811978397245537e-06,3.915536594936616e-06,3.775546949897733e-06,2.6217536179448625e-05,4.132136074335935e-06,3.842421687404637e-06,Unknown
0.2089903849999999,9.814832569858195e-06,3.9233718301008e-06,3.815199011995713e-06,2.76118817370707e-05,4.122676719788779e-06,3.553325960983752e-06,Unknown
0.20950961499999998,9.82042267358233e-06,3.929862387020789e-06,3.862232461601375e-06,2.8269122605961377e-05,4.1216927333595296e-06,3.3639199570607805e-06,Unknown
0.21002884600000016,9.813634246044796e-06,3.93211171760679e-06,3.888837189662269e-06,2.84408825122025e-05,4.157722798529842e-06,3.2455536904613274e-06,Unknown
0.21054807699999945,9.79719804571447e-06,3.92845815173337e-06,3.889574471935606e-06,2.84577581859122e-05,4.228565446167088e-06,3.1666223231469785e-06,Unknown
0.21106730799999962,9.79258399062094e-06,3.915068798546976e-06,3.885173987563433e-06,2.8454911420843466e-05,4.277576409038385e-06,3.123512525135617e-06,Unknown
0.2115865379999997,9.79392057564867e-06,3.905682494313661e-06,3.884399420880309e-06,2.8456178207770497e-05,4.292165850106896e-06,3.113179385345513e-06,Unknown
0.2121057689999999,9.788362416171136e-06,3.907721477066297e-06,3.88724465566924e-06,2.8465483360177065e-05,4.296669130003319e-06,3.115099934324108e-06,Unknown
0.21262500000000006,9.772643542546418e-06,3.910813779523073e-06,3.897750380078142e-06,2.849590508332456e-05,4.300040554440223e-06,3.117134313860712e-06,Unknown
0.21314423099999935,9.749931283702e-06,3.910314470574325e-06,3.907577993096593e-06,2.856603447072532e-05,4.312915911813215e-06,3.121375907125715e-06,Unknown
0.21366346199999953,9.749760720638017e-06,3.907661578401071e-06,3.908772355624877e-06,2.868218889594089e-05,4.342880871880405e-06,3.1313473659628128e-06,Unknown
0.21418269199999962,9.78009266376466e-06,3.9100246499224695e-06,3.906537786976716e-06,2.882610627101744e-05,4.379256755768608e-06,3.1428017742672326e-06,Unknown
0.2147019229999998,9.802525749556284e-06,3.924610853271056e-06,3.904980346300496e-06,2.8966729093743367e-05,4.408442014332775e-06,3.144024670494375e-06,Unknown
0.21522115399999997,9.806327930900336e-06,3.943352825300825e-06,3.904447309323424e-06,2.9082376464648e-05,4.423707820533163e-06,3.1503479660491947e-06,Unknown
0.21574038500000015,9.810024879573698e-06,3.956361229433056e-06,3.897151481479689e-06,2.9157401435946048e-05,4.428667940359924e-06,3.187420233809585e-06,Unknown
0.21625961499999935,9.822047101855944e-06,3.963451881321925e-06,3.880689660401879e-06,2.9175504252554e-05,4.430215065064421e-06,3.235675828491789e-06,Unknown
0.21677884599999953,9.851771182547576e-06,3.964404975931477e-06,3.883536344951968e-06,2.91619891788546e-05,4.4217535936880816e-06,3.263882473674385e-06,Unknown
0.2172980769999997,9.89059407890225e-06,3.951061674962865e-06,3.921376419121264e-06,2.919915375297559e-05,4.405668648578464e-06,3.2746636958749786e-06,Unknown
0.21781730799999988,9.918093431868518e-06,3.915764795898081e-06,3.968088015711009e-06,2.9316216067624714e-05,4.400000115532429e-06,3.283073067140156e-06,Unknown
0.21833653799999997,9.937661892978376e-06,3.874667673716001e-06,4.002542566028348e-06,2.9448158073947957e-05,4.402889903275185e-06,3.290247406121536e-06,Unknown
0.21885576900000014,9.950021935040386e-06,3.850304058074367e-06,4.026418650740219e-06,2.954964775493825e-05,4.393755329877207e-06,3.2816778779197503e-06,Unknown
0.21937499999999943,9.938361730568756e-06,3.841427144377442e-06,4.046960120390301e-06,2.9630061243892444e-05,4.340886073516172e-06,3.2470704271752225e-06,Unknown
0.2198942309999996,9.894956965906133e-06,3.835636321734254e-06,4.067362013828016e-06,2.969892342487548e-05,4.2366651621346e-06,3.211045520174971e-06,Unknown
0.22041346199999978,9.830410135903984e-06,3.819878157327044e-06,4.0887756964121625e-06,2.974461018201448e-05,4.141336316567895e-06,3.207014422426658e-06,Unknown
0.22093269199999988,9.767613986818029e-06,3.7875993151452006e-06,4.11154726188534e-06,2.9758956677304896e-05,4.1053963634231e-06,3.221655134167006e-06,Unknown
0.22145192300000005,9.721796935109064e-06,3.748653216885699e-06,4.134781650792521e-06,2.9756636381157156e-05,4.11219378307155e-06,3.227560905674785e-06,Unknown
0.22197115399999934,9.678870273116303e-06,3.7196559169453382e-06,4.156439110339001e-06,2.9753826518513124e-05,4.137652477976926e-06,3.234763574657323e-06,Unknown
0.2224903849999995,9.633602958533428e-06,3.707443860562574e-06,4.167595140548943e-06,2.9753167871019336e-05,4.172723224280213e-06,3.2895242000582896e-06,Unknown
0.2230096149999996,9.626377254008422e-06,3.705902793796537e-06,4.16642774838901e-06,2.975369273674868e-05,4.207873986281772e-06,3.4550939457761927e-06,Unknown
0.22352884599999978,9.668369788818029e-06,3.706155255552854e-06,4.166363764323411e-06,2.9755965208057965e-05,4.229032754781245e-06,3.736773292599245e-06,Unknown
0.22404807699999996,9.712676223128037e-06,3.70378280400524e-06,4.170126844774308e-06,2.9762460386601943e-05,4.2338809468668674e-06,4.0247610627248505e-06,Unknown
0.22456730800000013,9.736359556066344e-06,3.699515230923144e-06,4.171859277305145e-06,2.9779404382969812e-05,4.235012340636585e-06,4.188397091603986e-06,Unknown
0.22508653799999934,9.747801138587556e-06,3.6941385276349135e-06,4.171878019478919e-06,2.9811667307256463e-05,4.238166099289474e-06,4.214514440958946e-06,Unknown
0.2256057689999995,9.7732938344336e-06,3.681810049928088e-06,4.171741477582114e-06,2.985379112213089e-05,4.247547463115775e-06,4.231812292203226e-06,Unknown
0.2261249999999997,9.827429942784965e-06,3.657776762324214e-06,4.172815901293739e-06,2.989189971458893e-05,4.257036165448084e-06,4.384135716515776e-06,Unknown
0.22664423099999986,9.855966724558468e-06,3.6328935594139048e-06,4.173395514663722e-06,2.9918094576756485e-05,4.251252711615083e-06,4.665192140762337e-06,Unknown
0.22716346200000004,9.831186088200172e-06,3.620266463046248e-06,4.170300766880711e-06,2.9937222460418577e-05,4.242157191638935e-06,4.926376204049697e-06,Unknown
0.22768269200000013,9.803386478031716e-06,3.6156565282955233e-06,4.16765702369051e-06,2.995785744592036e-05,4.244874150629106e-06,5.047375510256593e-06,Unknown
0.22820192299999942,9.80072298308144e-06,3.61327420211279e-06,4.189255458175175e-06,2.99837161689688e-05,4.249430455623946e-06,5.058680917315946e-06,Unknown
0.2287211539999996,9.823457566738436e-06,3.603222774323803e-06,4.249796727372098e-06,3.001025833174192e-05,4.246619738469317e-06,5.066800193287931e-06,Unknown
0.22924038499999977,9.860088036613368e-06,3.5710814432289468e-06,4.315460782975712e-06,3.002536167329642e-05,4.236588738822168e-06,5.0874507085520015e-06,Unknown
0.22975961499999986,9.870224692442953e-06,3.5365995713031704e-06,4.347425816591012e-06,3.002118343279253e-05,4.230433465193614e-06,5.082319845471718e-06,Unknown
0.23027884600000004,9.845901933933264e-06,3.5262890450544286e-06,4.350996341328927e-06,3.000860215190065e-05,4.23379319375469e-06,5.069304085775486e-06,Unknown
0.23079807699999932,9.819994443445329e-06,3.5275532377044976e-06,4.35377096879099e-06,3.000801954839361e-05,4.237950907762335e-06,5.070103036154948e-06,Unknown
0.2313173079999995,9.803466433331096e-06,3.526751205459202e-06,4.369641755973427e-06,3.002407987853138e-05,4.2412814319035246e-06,5.079818038826407e-06,Unknown
0.2318365379999996,9.78626628751352e-06,3.5267634586898343e-06,4.395394813039245e-06,3.0047875212892745e-05,4.249394320599946e-06,5.088324968682819e-06,Unknown
0.23235576899999977,9.760101109912257e-06,3.5244998117428764e-06,4.423529314151816e-06,3.007963322636624e-05,4.271525224032541e-06,5.070578932147246e-06,Unknown
0.23287499999999994,9.72964969026498e-06,3.517066203433866e-06,4.449938203425471e-06,3.0126428932636245e-05,4.305743171712219e-06,5.026547311135932e-06,Unknown
0.23339423100000012,9.712594257155236e-06,3.5067453194860554e-06,4.4731895084212586e-06,3.017644439687781e-05,4.339827416986316e-06,4.989976513461237e-06,Unknown
0.2339134619999994,9.710021770519842e-06,3.4964496313482917e-06,4.488686256105811e-06,3.01973634214924e-05,4.370733137935514e-06,4.974413519537978e-06,Unknown
0.2344326919999995,9.71059365597624e-06,3.492584443502811e-06,4.491952812388593e-06,3.017680145503648e-05,4.398598555090861e-06,4.969925902782206e-06,Unknown
0.23495192299999967,9.724688696361548e-06,3.497416125354121e-06,4.487719353059086e-06,3.0143325998961684e-05,4.415608823547039e-06,4.968469057718289e-06,Unknown
0.23547115399999985,9.753123139644072e-06,3.5010602003856578e-06,4.485432418574514e-06,3.0127436117959425e-05,4.419497911757681e-06,4.968140739084722e-06,Unknown
0.23599038500000002,9.76890273472968e-06,3.499360086410632e-06,4.486184912872718e-06,3.012682306589076e-05,4.418566659026513e-06,4.969217360095538e-06,Unknown
0.23650961500000012,9.768064727661113e-06,3.504347484192781e-06,4.485869226526087e-06,3.012734412222165e-05,4.4125413867249896e-06,4.97031834254161e-06,Unknown
0.2370288459999994,9.768012809407942e-06,3.5205183510496367e-06,4.486225209296723e-06,3.012582188504958e-05,4.407774095401237e-06,4.969693598037112e-06,Unknown
0.23754807699999958,9.79123777451552e-06,3.534603723129749e-06,4.491477140293317e-06,3.012408209374484e-05,4.408244893658528e-06,4.969195432597306e-06,Unknown
0.23806730799999976,9.84477603204718e-06,3.530934272672465e-06,4.503159586091355e-06,3.0123938281204054e-05,4.4074089179041945e-06,4.970077283167244e-06,Unknown
0.23858653799999985,9.883609698458636e-06,3.5023859277816733e-06,4.526338001112005e-06,3.012859338871756e-05,4.41427525406684e-06,4.976141762122316e-06,Unknown
0.23910576900000002,9.883829316977716e-06,3.463288935738893e-06,4.560988737806901e-06,3.0138399229011305e-05,4.413680261307134e-06,5.015360513408359e-06,Unknown
0.2396249999999993,9.874324742355178e-06,3.441315488664629e-06,4.597137763580236e-06,3.014626085320953e-05,4.385289517818204e-06,5.159931484812847e-06,Unknown
0.2401442309999995,9.869196126158449e-06,3.4380754786773358e-06,4.631415486198776e-06,3.0148198028343615e-05,4.357444911390878e-06,5.409879534658129e-06,Unknown
0.24066346199999966,9.864813967813875e-06,3.4389691956191084e-06,4.654863009868687e-06,3.0148243904300263e-05,4.350721520113478e-06,5.593719303718296e-06,Unknown
0.24118269199999975,9.848345372879389e-06,3.443422288573865e-06,4.6565678286531465e-06,3.014883528316805e-05,4.352414025945106e-06,5.625045852477524e-06,Unknown
0.24170192299999993,9.811798297006503e-06,3.447022427951734e-06,4.647737364232351e-06,3.0150701652070207e-05,4.353800536169755e-06,5.633883768978688e-06,Unknown
0.2422211540000001,9.7810809293047e-06,3.440880816721281e-06,4.643936884643287e-06,3.0154777977569915e-05,4.3548468975063965e-06,5.679542554626977e-06,Unknown
0.2427403849999994,9.775468614412185e-06,3.429186147185421e-06,4.648334098392754e-06,3.0158501624927422e-05,4.355548592109672e-06,5.7011332763215264e-06,Unknown
0.24325961499999949,9.779600105266583e-06,3.4188780632057305e-06,4.652816830202303e-06,3.0159956157914157e-05,4.355562730825811e-06,5.702801564169158e-06,Unknown
0.24377884599999966,9.78049342759338e-06,3.408831861175155e-06,4.640603867480599e-06,3.016189841286845e-05,4.359525700625852e-06,5.714263473290145e-06,Unknown
0.24429807699999984,9.777953234460709e-06,3.395826323886337e-06,4.61342223074345e-06,3.016587925814528e-05,4.372083128104536e-06,5.823595351615546e-06,Unknown
0.244817308,9.775281024184445e-06,3.3856794425915155e-06,4.590161071468233e-06,3.0170636255667277e-05,4.385840605984768e-06,6.153499905387606e-06,Unknown
0.2453365380000001,9.77785848601853e-06,3.3880198540463795e-06,4.584698902185947e-06,3.017533552876681e-05,4.389167529889397e-06,6.600272566719343e-06,Unknown
0.2458557689999994,9.77251415761062e-06,3.395787828789456e-06,4.603521626271049e-06,3.017856112668847e-05,4.383792621837225e-06,6.924180843271992e-06,Unknown
0.24637499999999957,9.748446607102973e-06,3.3986618011243406e-06,4.621797094305356e-06,3.0179049985466463e-05,4.380877119762562e-06,7.052961766152857e-06,Unknown
0.24689423099999974,9.74204804480638e-06,3.400052160125138e-06,4.620305329804451e-06,3.0179664008499877e-05,4.382049139993488e-06,7.078283785759248e-06,Unknown
0.24741346199999992,9.778129404345236e-06,3.403817210176921e-06,4.624702733305147e-06,3.0189367225477927e-05,4.38291808982693e-06,7.080034762113145e-06,Unknown
0.247932692,9.819541419580805e-06,3.4081674939659665e-06,4.647489807809327e-06,3.021535094789289e-05,4.379242168657409e-06,7.078644082294962e-06,Unknown
0.24845192300000019,9.838211941491809e-06,3.4052804754344883e-06,4.677027065060899e-06,3.0250207292214477e-05,4.372095290648771e-06,7.079605364625709e-06,Unknown
0.24897115399999947,9.841668541534757e-06,3.398835668327302e-06,4.71018310568224e-06,3.0278825286785475e-05,4.371009495844585e-06,7.121842594009165e-06,Unknown
0.24949038499999965,9.832776625104e-06,3.400589204830331e-06,4.748698258480151e-06,3.029644008579959e-05,4.372724784211866e-06,7.270863324715092e-06,Unknown
0.25000961499999974,9.810912397155666e-06,3.4031419288868326e-06,4.784351783338462e-06,3.030828598536303e-05,4.3727024213337215e-06,7.482194934779933e-06,Unknown
0.2505288459999999,9.782797800822784e-06,3.3999048558094096e-06,4.804210121663806e-06,3.0319959180023116e-05,4.373265608789789e-06,7.634648976197404e-06,Unknown
0.2510480770000001,9.759416274853755e-06,3.390867620937413e-06,4.811320958594348e-06,3.033262939762305e-05,4.376803114301492e-06,7.697855811762898e-06,Unknown
0.2515673079999994,9.752088383627529e-06,3.374267649458337e-06,4.818658940712325e-06,3.034212326348518e-05,4.381624891184443e-06,7.713434154655105e-06,Unknown
0.25208653799999947,9.75627047145657e-06,3.3571736504974605e-06,4.830216486843024e-06,3.034509992782307e-05,4.37483908978815e-06,7.714600073534351e-06,Unknown
0.25260576899999965,9.760385989770431e-06,3.3407714578278146e-06,4.842419572487376e-06,3.0343522736788436e-05,4.361313010905844e-06,7.715313608373653e-06,Unknown
0.2531249999999998,9.7532280135377e-06,3.3200639336052878e-06,4.853131186288741e-06,3.0338545309016624e-05,4.357093731298521e-06,7.718018215392414e-06,Unknown
0.253644231,9.72092348508563e-06,3.2930374157116952e-06,4.864860651797137e-06,3.0323448326109653e-05,4.360256403092993e-06,7.718439954039784e-06,Unknown
0.2541634620000002,9.69271534656699e-06,3.2676217921258108e-06,4.877591711388818e-06,3.028875431613404e-05,4.362619731753687e-06,7.715307437782885e-06,Unknown
0.2546826919999994,9.710170968307611e-06,3.271836964710307e-06,4.888866387990326e-06,3.0241097018975235e-05,4.360407795083994e-06,7.711334238129757e-06,Unknown
0.25520192299999955,9.74117332890163e-06,3.303203815323504e-06,4.899403117841195e-06,3.0207561884738475e-05,4.35468966660053e-06,7.709670496001607e-06,Unknown
0.25572115399999973,9.745815144033936e-06,3.31666315885621e-06,4.906490575473472e-06,3.020489940109586e-05,4.350255817963422e-06,7.710787490458394e-06,Unknown
0.2562403849999999,9.745118916145705e-06,3.3017920108795915e-06,4.906993101115718e-06,3.0219485990141247e-05,4.350736311891429e-06,7.713664313597328e-06,Unknown
0.256759615,9.765375951683673e-06,3.28734451320069e-06,4.906328241683292e-06,3.0232601605656616e-05,4.35099168324255e-06,7.717720963046028e-06,Unknown
0.25727884600000017,9.80694294577364e-06,3.2822276038689893e-06,4.9052161445874345e-06,3.0246039522846585e-05,4.333334010782926e-06,7.720154452259842e-06,Unknown
0.25779807699999946,9.851238392970824e-06,3.2771719355605686e-06,4.892175390742047e-06,3.027855228727994e-05,4.293725734705882e-06,7.720186741672436e-06,Unknown
0.25831730799999963,9.872708488806811e-06,3.276145271480923e-06,4.867196650316056e-06,3.035293284868239e-05,4.261355127916189e-06,7.720756411889376e-06,Unknown
0.2588365379999997,9.870239744006825e-06,3.2847809589235184e-06,4.852931092336754e-06,3.0478599621683424e-05,4.256448582026688e-06,7.722784189036356e-06,Unknown
0.2593557689999999,9.862535052981624e-06,3.2912366915476e-06,4.865879321758568e-06,3.062635888314081e-05,4.267824021914271e-06,7.723764098108173e-06,Unknown
0.2598750000000001,9.854930645036138e-06,3.285414108367829e-06,4.890355718430999e-06,3.072474936924924e-05,4.281080403036265e-06,7.72255780835452e-06,Unknown
0.26039423099999937,9.845232303119406e-06,3.277170652601196e-06,4.903323578614457e-06,3.0714539218571125e-05,4.2822450264929816e-06,7.719918164621022e-06,Unknown
0.26091346199999954,9.8305765234506e-06,3.278373198217518e-06,4.904720845243337e-06,3.061335604148537e-05,4.270313790937795e-06,7.718133684718387e-06,Unknown
0.26143269199999963,9.799038922014412e-06,3.2844883201064683e-06,4.9036594963143456e-06,3.049150530447968e-05,4.263285293547215e-06,7.730423340650801e-06,Unknown
0.2619519229999998,9.752080004902869e-06,3.2872325278078437e-06,4.909734255659234e-06,3.0399511405963457e-05,4.26215860163588e-06,7.77134590854271e-06,Unknown
0.262471154,9.707462431385389e-06,3.2878382716237264e-06,4.931753719208508e-06,3.037296505544725e-05,4.26493134995369e-06,7.831110274331336e-06,Unknown
0.26299038500000016,9.692537038978127e-06,3.290434214410431e-06,4.961590798384895e-06,3.04864812434713e-05,4.280541912311689e-06,7.890380937014669e-06,Unknown
0.26350961499999936,9.732183395628312e-06,3.2988371206429133e-06,4.984163641068782e-06,3.082198306749869e-05,4.297098768431791e-06,7.947689401806386e-06,Unknown
0.26402884599999954,9.794611738759724e-06,3.3101174504237285e-06,4.996617990016779e-06,3.128035421178954e-05,4.303828040902487e-06,8.011265441847071e-06,Unknown
0.2645480769999997,9.828931226809184e-06,3.316955698374978e-06,5.00257957900398e-06,3.151669776497486e-05,4.307010210149596e-06,8.064378746893629e-06,Unknown
0.2650673079999999,9.836230360925522e-06,3.3206753066191487e-06,5.004022910026412e-06,3.132888457921378e-05,4.31245704442652e-06,8.075236333728447e-06,Unknown
0.265586538,9.831502862760465e-06,3.3289190717862908e-06,5.004390995410462e-06,3.096395413677658e-05,4.31753767666368e-06,8.08134707498744e-06,Unknown
0.26610576900000016,9.83869720484699e-06,3.351725737769658e-06,5.010493176644467e-06,3.0760144551201606e-05,4.309315024319283e-06,8.130745258966229e-06,Unknown
0.26662499999999945,9.878842003960471e-06,3.383025425866514e-06,5.025665878127341e-06,3.073065639963415e-05,4.296930049421325e-06,8.172636494744186e-06,Unknown
0.2671442309999996,9.913922471402257e-06,3.39677718802493e-06,5.048801370386655e-06,3.073025073245483e-05,4.300431429989853e-06,8.177504539881044e-06,Unknown
0.2676634619999998,9.915325534075384e-06,3.38501963652522e-06,5.072447028033694e-06,3.0721428745798446e-05,4.303998031903902e-06,8.17871829310761e-06,Unknown
0.2681826919999999,9.907147302263296e-06,3.3696973698361204e-06,5.082679663069238e-06,3.0727736779798425e-05,4.301578882170972e-06,8.176347213505381e-06,Unknown
0.26870192300000006,9.90469004329731e-06,3.3619895499912545e-06,5.081717991445694e-06,3.0737057170557934e-05,4.314855825278167e-06,8.166958596509189e-06,Unknown
0.26922115399999935,9.906619073086578e-06,3.3501941824974667e-06,5.096794922893895e-06,3.073136614415595e-05,4.331441969736529e-06,8.165914925011008e-06,Unknown
0.2697403849999995,9.899913861998233e-06,3.326000423820027e-06,5.1305189649256e-06,3.071873309663399e-05,4.329548977650094e-06,8.172017091127413e-06,Unknown
0.2702596149999996,9.86435895185574e-06,3.294981977370762e-06,5.144897783345624e-06,3.071146005379725e-05,4.32752020086758e-06,8.178026542068895e-06,Unknown
0.2707788459999998,9.810240485241536e-06,3.273959928385652e-06,5.137261361996196e-06,3.071259460216473e-05,4.340938925654882e-06,8.185169041023508e-06,Unknown
0.27129807699999997,9.761828668031775e-06,3.267196069378552e-06,5.132991655859589e-06,3.072263610803168e-05,4.357306986553094e-06,8.198576307023833e-06,Unknown
0.27181730800000015,9.7202872162668e-06,3.2677792928763417e-06,5.13262498019663e-06,3.0724677590862494e-05,4.3688953351771065e-06,8.21241458096997e-06,Unknown
0.27233653799999935,9.67231018421878e-06,3.269445806287665e-06,5.153330861378192e-06,3.067871013019898e-05,4.380588810924943e-06,8.210123796762876e-06,Unknown
0.2728557689999995,9.61070673722608e-06,3.266337950240216e-06,5.200517563842098e-06,3.0644132494885906e-05,4.399456315105427e-06,8.197279273731771e-06,Unknown
0.2733749999999997,9.551384147111172e-06,3.266288705306597e-06,5.227603083800204e-06,3.079062087576624e-05,4.427079108957575e-06,8.193913822484911e-06,Unknown
0.2738942309999999,9.520307656027031e-06,3.267416928793136e-06,5.213470843663514e-06,3.107769129250793e-05,4.458282668573284e-06,8.196476662709179e-06,Unknown
0.27441346200000005,9.515524861913855e-06,3.251048682092934e-06,5.18011486115473e-06,3.12590730715016e-05,4.49149014590281e-06,8.195888344606301e-06,Unknown
0.27493269200000015,9.522141980813252e-06,3.2139226682199502e-06,5.145919816484296e-06,3.128184064568567e-05,4.529903608753631e-06,8.197322539449245e-06,Unknown
0.27545192299999943,9.546937816283216e-06,3.1771525075950496e-06,5.124784494890362e-06,3.127217832545862e-05,4.566575664219709e-06,8.200103226493682e-06,Unknown
0.2759711539999996,9.581298998039135e-06,3.1640320432312684e-06,5.122127184035933e-06,3.128634246290061e-05,4.59018204930134e-06,8.20022537245457e-06,Unknown
0.2764903849999998,9.598426647966653e-06,3.1707449208922182e-06,5.126928829948981e-06,3.131590554069205e-05,4.603845373885046e-06,8.200417423600186e-06,Unknown
0.2770096149999999,9.601346728821297e-06,3.178204253993191e-06,5.129679454680131e-06,3.137114668658085e-05,4.618160686259565e-06,8.20454829558175e-06,Unknown
0.27752884600000005,9.603144584200204e-06,3.1834817433525064e-06,5.128492260181816e-06,3.146888865964109e-05,4.643567404775879e-06,8.224578386386326e-06,Unknown
0.27804807699999934,9.609281848752047e-06,3.189956178389354e-06,5.12509688842468e-06,3.159580832749065e-05,4.675145697510477e-06,8.28069242356718e-06,Unknown
0.2785673079999995,9.61389036998304e-06,3.192843493262884e-06,5.122909727336906e-06,3.1726293472215395e-05,4.689352233619389e-06,8.38541039890456e-06,Unknown
0.2790865379999996,9.584654959801536e-06,3.190826539429034e-06,5.12295026471874e-06,3.184316932814666e-05,4.687736899265981e-06,8.519596445410491e-06,Unknown
0.2796057689999998,9.52709992307868e-06,3.189004936676688e-06,5.12505382426519e-06,3.193180268270393e-05,4.688010853004965e-06,8.613463357370236e-06,Unknown
0.28012499999999996,9.488413052538256e-06,3.1904140141612787e-06,5.12625593267228e-06,3.199808057696189e-05,4.6879310225632665e-06,8.622022405000005e-06,Unknown
0.28064423100000013,9.46871973661477e-06,3.188531164767975e-06,5.123214659286306e-06,3.207175253579649e-05,4.694398488059839e-06,8.659904490079378e-06,Unknown
0.2811634619999994,9.440921088640331e-06,3.1774642771552747e-06,5.122910869225347e-06,3.2172493518559315e-05,4.70109178584849e-06,8.871658840608333e-06,Unknown
0.2816826919999995,9.377267126018235e-06,3.1638042216544287e-06,5.129138734814683e-06,3.228438191007083e-05,4.702211583347735e-06,9.147416948559662e-06,Unknown
0.2822019229999997,9.268251662658318e-06,3.1493023589959582e-06,5.13229174556827e-06,3.2362033161664054e-05,4.743245853393994e-06,9.291274592623768e-06,Unknown
0.28272115399999986,9.180280174003374e-06,3.131491167722375e-06,5.123979360227238e-06,3.2379762477037525e-05,4.810567815749631e-06,9.312581481351549e-06,Unknown
0.28324038500000004,9.159057149972876e-06,3.120152487586981e-06,5.102697109002246e-06,3.237035033057924e-05,4.845048834243521e-06,9.312173023279376e-06,Unknown
0.28375961500000013,9.162586102000478e-06,3.1197851225060024e-06,5.074824753200047e-06,3.2382567587001246e-05,4.8541672220587925e-06,9.314500294810812e-06,Unknown
0.2842788459999994,9.164414684689332e-06,3.1228307947714006e-06,5.05412483813625e-06,3.242442888404116e-05,4.865638608486601e-06,9.312780736953e-06,Unknown
0.2847980769999996,9.159895260165834e-06,3.125764792694047e-06,5.046509037883391e-06,3.247100361576323e-05,4.907802300244834e-06,9.314426702757491e-06,Unknown
0.28531730799999977,9.146413262502891e-06,3.1276251586750115e-06,5.045324128948824e-06,3.250065722370251e-05,5.005305030508426e-06,9.320035585344234e-06,Unknown
0.28583653799999986,9.144607722043735e-06,3.131165213037168e-06,5.043656744658181e-06,3.251386596961646e-05,5.149510782962925e-06,9.323487067838224e-06,Unknown
0.28635576900000004,9.155153231074405e-06,3.1416189073071026e-06,5.039991307981009e-06,3.252420520123792e-05,5.336228975123191e-06,9.32386417407241e-06,Unknown
0.2868749999999993,9.166013363902792e-06,3.155820652997586e-06,5.047763329140741e-06,3.254664153097229e-05,5.583497070760764e-06,9.323466842190306e-06,Unknown
0.2873942309999995,9.180990775856737e-06,3.166492288669492e-06,5.084259629388348e-06,3.260217179553378e-05,5.874695794762116e-06,9.32333790073995e-06,Unknown
0.2879134619999997,9.192481803398343e-06,3.168663542815973e-06,5.134860005416839e-06,3.268363864755331e-05,6.1381762366704526e-06,9.323665948829046e-06,Unknown
0.28843269199999977,9.191033047303372e-06,3.1678215963345297e-06,5.166720094366704e-06,3.274069244904153e-05,6.328782446631699e-06,9.32469091376947e-06,Unknown
0.28895192299999994,9.174816392893306e-06,3.166808315294087e-06,5.174254128240717e-06,3.2758033265305814e-05,6.460668902249968e-06,9.325940895895082e-06,Unknown
0.2894711540000001,9.139118335646436e-06,3.1440619281174797e-06,5.174339104679528e-06,3.276324854365881e-05,6.544158685593971e-06,9.326203014713874e-06,Unknown
0.2899903849999994,9.0889214280784e-06,3.0988473930754306e-06,5.174219186358917e-06,3.277959359028791e-05,6.556987063265419e-06,9.327457541546387e-06,Unknown
0.2905096149999995,9.028730078074528e-06,3.063715182834193e-06,5.172216721966538e-06,3.282701860571174e-05,6.574726644798775e-06,9.34007786390779e-06,Unknown
0.2910288459999997,8.958827453667415e-06,3.048837309617531e-06,5.169454262031327e-06,3.2887892062343975e-05,6.847480888344909e-06,9.372500350669806e-06,Unknown
0.29154807699999985,8.90264460565412e-06,3.0424094932614794e-06,5.166687611979728e-06,3.292067734568702e-05,7.4062521798696275e-06,9.412101457775413e-06,Unknown
0.292067308,8.886273231761214e-06,3.037254594452346e-06,5.165241202499137e-06,3.292589884006749e-05,7.90685895914951e-06,9.438800022067916e-06,Unknown
0.2925865380000001,8.894101210558363e-06,3.0320704611578624e-06,5.166329416563302e-06,3.292605640320098e-05,8.14168433987423e-06,9.44849402488534e-06,Unknown
0.2931057689999994,8.897895172865125e-06,3.024801350032708e-06,5.167634157554573e-06,3.293059907447924e-05,8.206720116577646e-06,9.44821464866938e-06,Unknown
0.2936249999999996,8.88428137797688e-06,3.0102449966382526e-06,5.168677863995518e-06,3.294532968453342e-05,8.229455146812604e-06,9.469087777632128e-06,Unknown
0.29414423099999976,8.846731311056271e-06,2.990622114786808e-06,5.171816879178117e-06,3.2985482055039444e-05,8.260157149921549e-06,9.61556502999838e-06,Unknown
0.29466346199999993,8.816592231811275e-06,2.975556681833833e-06,5.183080169720559e-06,3.306962010403202e-05,8.305813027372073e-06,9.96447124417842e-06,Unknown
0.295182692,8.829645448936008e-06,2.969961069943872e-06,5.20268271667178e-06,3.3198188656605504e-05,8.335648630087101e-06,1.030106521919524e-05,Unknown
0.2957019229999993,8.858616695755237e-06,2.969726568115407e-06,5.214401364131144e-06,3.335304946832284e-05,8.33580006307548e-06,1.0373837055670104e-05,Unknown
0.2962211539999995,8.87065864018236e-06,2.9695445003416797e-06,5.214764426467835e-06,3.351354263272745e-05,8.323512444387898e-06,1.04158953322197e-05,Unknown
0.29674038499999966,8.871327456813516e-06,2.9696051412999143e-06,5.21655302033202e-06,3.36573968763777e-05,8.305983153260739e-06,1.0729331410168184e-05,Unknown
0.29725961499999976,8.869198348841484e-06,2.970913761859193e-06,5.218518446542627e-06,3.3759505220700744e-05,8.2808818214323e-06,1.1087547271581237e-05,Unknown
0.29777884599999993,8.873176695004346e-06,2.971206551732326e-06,5.215034445915519e-06,3.381152666155974e-05,8.255480926851955e-06,1.1237863326515143e-05,Unknown
0.2982980770000001,8.875888121270354e-06,2.9658024390014418e-06,5.2086868717205135e-06,3.383193500781823e-05,8.242789376529413e-06,1.1255542731705528e-05,Unknown
0.2988173079999994,8.846244932011272e-06,2.958396231931197e-06,5.20394550858755e-06,3.3842341232219265e-05,8.244876190800887e-06,1.1252046383687511e-05,Unknown
0.2993365379999995,8.789348373036807e-06,2.956595443088557e-06,5.207251994753748e-06,3.384713410468994e-05,8.253033244313576e-06,1.1246299053583613e-05,Unknown
0.29985576899999966,8.740680136554198e-06,2.9571904203235253e-06,5.222870960653591e-06,3.384580677422753e-05,8.260694520198094e-06,1.1238752317199075e-05,Unknown
0.30037499999999984,8.707858982231976e-06,2.959868600772129e-06,5.2406682037304325e-06,3.3879161364162435e-05,8.26410605266383e-06,1.12383636241597e-05,Unknown
0.300894231,8.672904490067522e-06,2.966080775695438e-06,5.247417733523421e-06,3.398857183404476e-05,8.262833345856563e-06,1.125998070448632e-05,Unknown
0.3014134620000002,8.618155429453545e-06,2.963050171099479e-06,5.2472198548465465e-06,3.410800764221069e-05,8.26091672920176e-06,1.1298458309688704e-05,Unknown
0.3019326919999994,8.548460849129977e-06,2.939128976580157e-06,5.254526245174365e-06,3.416341288451139e-05,8.264570710820481e-06,1.1317866274494516e-05,Unknown
0.30245192299999957,8.488774303158658e-06,2.9027803739640207e-06,5.278062046456381e-06,3.4179894630709404e-05,8.26793122942879e-06,1.1317871348694644e-05,Unknown
0.30297115399999974,8.453380555291964e-06,2.8724952790718317e-06,5.309815487845408e-06,3.4199471467156144e-05,8.260350996627505e-06,1.133169754920431e-05,Unknown
0.3034903849999999,8.445411644493408e-06,2.8563429134427536e-06,5.3323109280356105e-06,3.426357812961211e-05,8.27022107066648e-06,1.1355104631447568e-05,Unknown
0.304009615,8.468674223088205e-06,2.850873783370065e-06,5.338010704342828e-06,3.4381178071032144e-05,8.346889867991485e-06,1.1372890245886838e-05,Unknown
0.3045288460000002,8.508385256151454e-06,2.850916375373815e-06,5.326475464661573e-06,3.4474926643297585e-05,8.484611967776666e-06,1.1389547966691117e-05,Unknown
0.3050480769999995,8.53530062386824e-06,2.851589703653362e-06,5.296803558104515e-06,3.4493292529571736e-05,8.619235469342917e-06,1.1415333115922262e-05,Unknown
0.30556730799999965,8.545453769844987e-06,2.851512789631061e-06,5.2627370599854655e-06,3.447507712681594e-05,8.7061993868833e-06,1.1451253974927251e-05,Unknown
0.30608653799999974,8.551340049685264e-06,2.851202468440646e-06,5.248582981695498e-06,3.446441667921352e-05,8.754009210486868e-06,1.1478951814162711e-05,Unknown
0.3066057689999999,8.570461564743924e-06,2.8491393626360885e-06,5.2558055697414375e-06,3.446654246033934e-05,8.78929350386519e-06,1.1486719834704793e-05,Unknown
0.3071250000000001,8.608522610327807e-06,2.8493014704232573e-06,5.2674952681520206e-06,3.447416292884745e-05,8.83117908507391e-06,1.1485370456191366e-05,Unknown
0.3076442309999994,8.624251039140741e-06,2.8476647241731545e-06,5.275606214293467e-06,3.448433340568145e-05,8.8796488203169e-06,1.1485534641018936e-05,Unknown
0.30816346199999956,8.604216675150816e-06,2.8337364198399773e-06,5.280269080405936e-06,3.449592652832347e-05,8.911612617515205e-06,1.1483891428926724e-05,Unknown
0.30868269199999965,8.586469169178875e-06,2.818089293085738e-06,5.281555368584999e-06,3.450617556268104e-05,8.915931375245732e-06,1.14764524479411e-05,Unknown
0.3092019229999998,8.579105209103276e-06,2.817286623325156e-06,5.28155815972849e-06,3.451217750904165e-05,8.924246835349724e-06,1.1469878352198497e-05,Unknown
0.309721154,8.570566847287587e-06,2.8266581150156737e-06,5.28850625780746e-06,3.4514777803454634e-05,8.986111828687578e-06,1.14690304476832e-05,Unknown
0.3102403850000002,8.543648284537197e-06,2.8318162786398005e-06,5.305394798493642e-06,3.451845871935282e-05,9.11144350442076e-06,1.1469728844073104e-05,Unknown
0.3107596149999994,8.49177697204388e-06,2.830989270941549e-06,5.320053231606846e-06,3.452205811148091e-05,9.238917289825103e-06,1.147093383155704e-05,Unknown
0.31127884599999955,8.45710387949262e-06,2.8298993220086237e-06,5.324960233207432e-06,3.450848196565557e-05,9.298891395214767e-06,1.1478227305539656e-05,Unknown
0.31179807699999973,8.461488939108048e-06,2.830099761982229e-06,5.322027983984835e-06,3.44531627308719e-05,9.304388113785304e-06,1.1490996079559289e-05,Unknown
0.3123173079999999,8.47788945539287e-06,2.830372842265083e-06,5.307257488322795e-06,3.435058374912136e-05,9.306506912137124e-06,1.149644815499806e-05,Unknown
0.312836538,8.487044699985875e-06,2.830136544809595e-06,5.287294330149296e-06,3.4234591285777256e-05,9.313257190465152e-06,1.149749302497933e-05,Unknown
0.3133557690000002,8.484458029456777e-06,2.831439064762731e-06,5.279392290123479e-06,3.41702417237718e-05,9.31532170095312e-06,1.1519550202303508e-05,Unknown
0.31387499999999946,8.478433455104027e-06,2.833586046951612e-06,5.2839102928732e-06,3.420857318731621e-05,9.3154037972211e-06,1.1556785819359828e-05,Unknown
0.31439423099999964,8.482268745172794e-06,2.832650135786411e-06,5.2909000817585775e-06,3.4342278497656866e-05,9.321653014827809e-06,1.157846188678616e-05,Unknown
0.3149134619999998,8.498231389967971e-06,2.830281387322125e-06,5.307367805438708e-06,3.4518273287795535e-05,9.345048876771792e-06,1.1582884623052606e-05,Unknown
0.3154326919999999,8.530186361057921e-06,2.833273097113192e-06,5.35537198158575e-06,3.468398606793168e-05,9.378036308088437e-06,1.1583120963427572e-05,Unknown
0.3159519230000001,8.58651449289965e-06,2.8471132440623247e-06,5.44031420952165e-06,3.480901312113995e-05,9.391847877965946e-06,1.15832198937508e-05,Unknown
0.31647115399999937,8.652854944593806e-06,2.8630246080693253e-06,5.536320170048467e-06,3.488227405548933e-05,9.391843564929573e-06,1.1583238170096232e-05,Unknown
0.31699038499999954,8.698128378480446e-06,2.866019890193741e-06,5.600274409805981e-06,3.4908070656570626e-05,9.397581110567443e-06,1.1584306153977129e-05,Unknown
0.31750961499999963,8.719389447487397e-06,2.862837538953554e-06,5.617998016842583e-06,3.4901075226757254e-05,9.399902557034225e-06,1.1593454671436467e-05,Unknown
0.3180288459999998,8.734758823469639e-06,2.8629993630969174e-06,5.617352217791837e-06,3.489616767155036e-05,9.393520498553524e-06,1.1620595692348615e-05,Unknown
0.318548077,8.76017328690999e-06,2.8596838521872915e-06,5.616589930456163e-06,3.4986085924121144e-05,9.387794800410094e-06,1.1674429222938188e-05,Unknown
0.31906730800000016,8.785393290448209e-06,2.857094720487034e-06,5.615756769199361e-06,3.529080183418354e-05,9.387286549528068e-06,1.1760454204072664e-05,Unknown
0.31958653799999936,8.770329683476175e-06,2.8650185391769085e-06,5.6159829419085936e-06,3.5791422203406103e-05,9.388045674748764e-06,1.1867510797495996e-05,Unknown
0.32010576899999954,8.726260671967404e-06,2.875703911192146e-06,5.613153974500798e-06,3.626905251501427e-05,9.384905166562625e-06,1.1958687163446278e-05,Unknown
0.3206249999999997,8.701425780961526e-06,2.8809780196133425e-06,5.607722408730129e-06,3.65377068226761e-05,9.380538015982671e-06,1.199800037291905e-05,Unknown
0.3211442309999999,8.695394516963256e-06,2.883408887574206e-06,5.60815726354637e-06,3.662224234792311e-05,9.381296597524853e-06,1.1998022878216656e-05,Unknown
0.32166346200000007,8.686216874686175e-06,2.886651237749789e-06,5.610643756184731e-06,3.663561721260829e-05,9.384987277293256e-06,1.204512406412888e-05,Unknown
0.32218269200000016,8.657334469967592e-06,2.889834198977281e-06,5.607749828162304e-06,3.663685234429721e-05,9.38605900284536e-06,1.2233763692819786e-05,Unknown
0.32270192299999945,8.606708832995245e-06,2.8853602881971557e-06,5.607274059015328e-06,3.663785420920157e-05,9.384259417443068e-06,1.2522577188216936e-05,Unknown
0.3232211539999996,8.579465000302832e-06,2.874046218879776e-06,5.618612435922142e-06,3.664082622644004e-05,9.386898667194586e-06,1.276657480478748e-05,Unknown
0.3237403849999998,8.606151766678747e-06,2.868375595354816e-06,5.638856143027039e-06,3.664764111083072e-05,9.40309997744987e-06,1.291184237943788e-05,Unknown
0.3242596149999999,8.647979217288578e-06,2.8712206400948453e-06,5.665035601489382e-06,3.666748737024593e-05,9.423744609783708e-06,1.3005189533834098e-05,Unknown
0.32477884600000007,8.669700072003926e-06,2.8784336891816373e-06,5.704972833848906e-06,3.672002279381478e-05,9.430992952499228e-06,1.3086662717801184e-05,Unknown
0.32529807699999935,8.674807868114748e-06,2.890903402590784e-06,5.7671075084862096e-06,3.6807968676124775e-05,9.42572568618179e-06,1.31515589011914e-05,Unknown
0.32581730799999953,8.673183207130923e-06,2.9105891471493483e-06,5.844625630518269e-06,3.688660481126223e-05,9.408339447789754e-06,1.3181151609261435e-05,Unknown
0.3263365379999996,8.676032052013412e-06,2.9252807936577087e-06,5.917919369374673e-06,3.68874282459482e-05,9.374598414205369e-06,1.3185900662927424e-05,Unknown
0.3268557689999998,8.693302389327084e-06,2.9156205793204765e-06,5.973385470912456e-06,3.677583055737778e-05,9.34593098202854e-06,1.3185813234303324e-05,Unknown
0.32737499999999997,8.726320151043413e-06,2.8920245604490924e-06,6.0104114700127e-06,3.656671312978581e-05,9.3491897940134e-06,1.3190312547572009e-05,Unknown
0.32789423100000015,8.767954343331358e-06,2.8829538196743416e-06,6.032501139624912e-06,3.628669280164746e-05,9.385504801173151e-06,1.3205617195381366e-05,Unknown
0.32841346199999943,8.799728749967986e-06,2.892563588979753e-06,6.0441556065544286e-06,3.5944480215761314e-05,9.44877701020799e-06,1.3229684502561306e-05,Unknown
0.3289326919999995,8.807512886369518e-06,2.903668600437533e-06,6.050558764947904e-06,3.5555446190147215e-05,9.5423070866556e-06,1.3245075570576087e-05,Unknown
0.3294519229999997,8.802361927563565e-06,2.904402970578576e-06,6.05325102614061e-06,3.519155480492529e-05,9.659472345499552e-06,1.324518705997192e-05,Unknown
0.3299711539999999,8.800513004504844e-06,2.914601818716528e-06,6.0526872835699645e-06,3.4953936631232414e-05,9.766942789068734e-06,1.3241473829711631e-05,Unknown
0.33049038500000005,8.81409340738069e-06,2.9556981907747687e-06,6.052975979564096e-06,3.486228431027629e-05,9.8267258378829e-06,1.323935882502519e-05,Unknown
0.33100961500000015,8.843824854362663e-06,3.0020279897844817e-06,6.0588610220677465e-06,3.4848435551548735e-05,9.838208046267142e-06,1.3240084988071915e-05,Unknown
0.33152884599999943,8.856008453108286e-06,3.0226276074184444e-06,6.069622472909052e-06,3.48459767533297e-05,9.839667579796615e-06,1.324356742959808e-05,Unknown
0.3320480769999996,8.84055028496551e-06,3.021162581881246e-06,6.087901701379195e-06,3.477456593000369e-05,9.86119423713693e-06,1.324601225911852e-05,Unknown
0.3325673079999998,8.830384445243776e-06,3.0152907703044134e-06,6.136207134799268e-06,3.4417691212393704e-05,9.8991007785577e-06,1.3246858640467589e-05,Unknown
0.3330865379999999,8.832905205406042e-06,3.014393818160406e-06,6.226941351635056e-06,3.347041342160564e-05,9.938879292798656e-06,1.3248082844421662e-05,Unknown
0.33360576900000005,8.842924631287286e-06,3.0146185411043944e-06,6.315571284607709e-06,3.2014485225701804e-05,9.973616932392084e-06,1.3254707965276224e-05,Unknown
0.33412499999999934,8.857239432112432e-06,3.014515976661036e-06,6.352883453147674e-06,3.070123931750094e-05,1.0012942889350964e-05,1.327532499764589e-05,Unknown
0.3346442309999995,8.857854574458458e-06,3.0225982636914764e-06,6.353439715971409e-06,3.001599590259796e-05,1.0092317326144109e-05,1.3309078225312384e-05,Unknown
0.3351634619999997,8.851079575534357e-06,3.033748406159849e-06,6.356992566394489e-06,2.981576922730678e-05,1.024630043658504e-05,1.3342387455721075e-05,Unknown
0.3356826919999998,8.851618429168444e-06,3.036252258027272e-06,6.383145065998349e-06,2.9789297211812635e-05,1.0444374275257468e-05,1.3366603656538978e-05,Unknown
0.33620192299999996,8.847967013194844e-06,3.035792847712143e-06,6.435109879940491e-06,2.9796572192478397e-05,1.0591277835870664e-05,1.3385576099517912e-05,Unknown
0.33672115400000013,8.841260874057276e-06,3.034374922777726e-06,6.506488488856815e-06,2.980684225185853e-05,1.064751828090936e-05,1.3406508934497816e-05,Unknown
0.3372403849999994,8.840055790994583e-06,3.029372204276531e-06,6.583763300901612e-06,2.981097850729954e-05,1.0658191787976522e-05,1.3430273415174345e-05,Unknown
0.3377596149999995,8.8425803298427e-06,3.0280691976657017e-06,6.651544687420896e-06,2.979561820789677e-05,1.0659727277054891e-05,1.344610742476479e-05,Unknown
0.3382788459999997,8.853056665801854e-06,3.034929665281546e-06,6.700713004702331e-06,2.9742758907286244e-05,1.0658915731812504e-05,1.3448442783041534e-05,Unknown
0.33879807699999986,8.861873547481096e-06,3.0470777230420783e-06,6.728736457548629e-06,2.964340160494488e-05,1.0653389911878265e-05,1.344623731099326e-05,Unknown
0.33931730800000004,8.857188270223747e-06,3.0497266810183034e-06,6.739601309296315e-06,2.9511565210602198e-05,1.0641509449579551e-05,1.344557438573825e-05,Unknown
0.33983653800000013,8.851678699031912e-06,3.03114010685917e-06,6.741789350300836e-06,2.9374952796133848e-05,1.0629854843924388e-05,1.3449003512309104e-05,Unknown
0.3403557689999994,8.852979680847425e-06,3.0093588646371926e-06,6.739464529594266e-06,2.9255568528459035e-05,1.0623716756295476e-05,1.3460576273010934e-05,Unknown
0.3408749999999996,8.852758093767197e-06,3.0053731168891707e-06,6.737093897435677e-06,2.9173926847000228e-05,1.0621551072834872e-05,1.3501148690040618e-05,Unknown
0.34139423099999977,8.842451446151308e-06,3.011198810069488e-06,6.739583467029184e-06,2.9151757905036225e-05,1.0620761760437296e-05,1.359642382362265e-05,Unknown
0.34191346199999995,8.81228556932208e-06,3.0142321164734816e-06,6.736420095152451e-06,2.9165540474610477e-05,1.062194144308059e-05,1.3713053126041798e-05,Unknown
0.34243269200000004,8.770739466041242e-06,3.017177486665475e-06,6.716330177007892e-06,2.912910144489314e-05,1.0625842731000556e-05,1.3779849863046997e-05,Unknown
0.3429519229999993,8.746385539537228e-06,3.030508209011378e-06,6.688975115073269e-06,2.9005251462878184e-05,1.0629500876029284e-05,1.3785125312180255e-05,Unknown
0.3434711539999995,8.72957641239478e-06,3.05671790248168e-06,6.670138670684238e-06,2.885812928820833e-05,1.063205913026603e-05,1.38010982888629e-05,Unknown
0.3439903849999997,8.699142446810165e-06,3.0801773163002995e-06,6.659640592084823e-06,2.8744132428490477e-05,1.063744945723091e-05,1.3915578827215655e-05,Unknown
0.34450961499999977,8.676665741279414e-06,3.0864455220561125e-06,6.647167801210543e-06,2.8663995832672457e-05,1.0646655436637129e-05,1.4142604186215086e-05,Unknown
0.34502884599999994,8.678415559843422e-06,3.077424844687061e-06,6.655366545470259e-06,2.861164987843477e-05,1.0656575343565858e-05,1.4399787491445169e-05,Unknown
0.3455480770000001,8.710014011423465e-06,3.0628700269193923e-06,6.718806011658248e-06,2.8599270381467905e-05,1.0664259563776204e-05,1.4585935984588383e-05,Unknown
0.3460673079999994,8.76057636784282e-06,3.0533552651909497e-06,6.808363706765007e-06,2.862606700839788e-05,1.0669539825115426e-05,1.4668494034263805e-05,Unknown
0.3465865379999995,8.781911945676808e-06,3.0535582550539862e-06,6.870348862059332e-06,2.8654373593944287e-05,1.0674497354389889e-05,1.468339466789369e-05,Unknown
0.3471057689999997,8.775015625603821e-06,3.057345861293652e-06,6.89616513440449e-06,2.865897073580712e-05,1.0677080712605266e-05,1.4675825699920312e-05,Unknown
0.34762499999999985,8.778245734590164e-06,3.0599278683661232e-06,6.9016356830243785e-06,2.865676299147977e-05,1.0669082988344606e-05,1.4663983553570352e-05,Unknown
0.348144231,8.770459197503058e-06,3.0640816272480443e-06,6.898073017614356e-06,2.865642345415283e-05,1.0654743663922838e-05,1.4645383422352044e-05,Unknown
0.3486634619999993,8.732404149587942e-06,3.0767690317736523e-06,6.90852374459466e-06,2.8655056141897367e-05,1.0648025834759484e-05,1.4623861056490034e-05,Unknown
0.3491826919999994,8.703549611484882e-06,3.1012834993279714e-06,6.972525664324683e-06,2.8670814959178813e-05,1.0647300084795744e-05,1.4621185092156364e-05,Unknown
0.3497019229999996,8.719479983498225e-06,3.124113126941648e-06,7.097909318033669e-06,2.8703202619058223e-05,1.0646968617909368e-05,1.4652394030448807e-05,Unknown
0.35022115399999976,8.770104152438636e-06,3.133441600943916e-06,7.252889935072658e-06,2.8723188866894152e-05,1.064684669258049e-05,1.4706656807365916e-05,Unknown
0.35074038499999993,8.79968829143212e-06,3.1351700142311506e-06,7.417529748315458e-06,2.8720568653600644e-05,1.0651962705359933e-05,1.4753255615477114e-05,Unknown
0.351259615,8.760929513897802e-06,3.134869443516541e-06,7.597841033602236e-06,2.8710136192840437e-05,1.066657590341872e-05,1.4762244436558524e-05,Unknown
0.3517788459999993,8.684573750845486e-06,3.1319880907323917e-06,7.786348010768072e-06,2.870748592207001e-05,1.0677288694325937e-05,1.4723989528877772e-05,Unknown
0.3522980769999995,8.630094550896137e-06,3.1301073113393776e-06,7.943911364242437e-06,2.8722451381862765e-05,1.0676790619908284e-05,1.465683299102084e-05,Unknown
0.35281730799999966,8.604144320940172e-06,3.13023308497472e-06,8.045258646222397e-06,2.8775260008046416e-05,1.0673080775567178e-05,1.4615733038956716e-05,Unknown
0.35333653799999976,8.581669551021671e-06,3.1316798484660136e-06,8.096188748368308e-06,2.891110444077156e-05,1.0671529967379648e-05,1.4628367613684556e-05,Unknown
0.35385576899999993,8.53675405736937e-06,3.147808827907241e-06,8.120557243085105e-06,2.917268682768121e-05,1.0675152988475616e-05,1.4641978271342398e-05,Unknown
0.3543750000000001,8.465754638478608e-06,3.174349862675468e-06,8.166925095230872e-06,2.954749145436142e-05,1.0681649720384336e-05,1.4634505522693932e-05,Unknown
0.3548942309999994,8.414322361524259e-06,3.1836626375922243e-06,8.276185282323248e-06,2.9993813704724995e-05,1.0688215500033373e-05,1.4640879699901142e-05,Unknown
0.35541346199999957,8.399500247409642e-06,3.1795122386242298e-06,8.435440107667822e-06,3.0499952927838025e-05,1.0702763640457575e-05,1.4650426849400171e-05,Unknown
0.35593269199999966,8.395998511464513e-06,3.1830026755847656e-06,8.597700165871456e-06,3.1049406501527115e-05,1.0735401800431566e-05,1.4641703464257451e-05,Unknown
0.35645192299999984,8.412066071527063e-06,3.195327610291285e-06,8.733192599356605e-06,3.152741808618413e-05,1.0778893759830174e-05,1.4639333787442767e-05,Unknown
0.356971154,8.438655736503021e-06,3.217398171483956e-06,8.847604772309868e-06,3.1768679812422085e-05,1.0803802342933988e-05,1.4657669268160582e-05,Unknown
0.3574903850000002,8.447466398633587e-06,3.2615566720196124e-06,8.962834902703776e-06,3.178006358303511e-05,1.0795704059491088e-05,1.4674785985950182e-05,Unknown
0.3580096149999994,8.443886293328894e-06,3.330180318966635e-06,9.091031107822473e-06,3.1734302360309124e-05,1.078783579706618e-05,1.467822071977782e-05,Unknown
0.35852884599999957,8.4407128673546e-06,3.4014498144840724e-06,9.226339325898358e-06,3.176795343933939e-05,1.0821177311421534e-05,1.4678304992453526e-05,Unknown
0.35904807699999974,8.45923061272692e-06,3.453899449464665e-06,9.355793211601638e-06,3.19960602010402e-05,1.0907901513197588e-05,1.4679551910995316e-05,Unknown
0.3595673079999999,8.51053266879761e-06,3.4874960698031326e-06,9.465735207576534e-06,3.259121884836825e-05,1.1051208746812633e-05,1.4679591821417844e-05,Unknown
0.360086538,8.546123747534307e-06,3.5182836491100064e-06,9.538507862654975e-06,3.361294704614282e-05,1.1251468040132795e-05,1.4679640375733036e-05,Unknown
0.3606057690000002,8.532989904960613e-06,3.5694241919202884e-06,9.566430331946672e-06,3.4748289954073535e-05,1.147384902241402e-05,1.467930489100936e-05,Unknown
0.3611249999999995,8.512097005692906e-06,3.630877194384248e-06,9.567386467284203e-06,3.5617802891481626e-05,1.16565324916411e-05,1.4679190997338352e-05,Unknown
0.36164423099999965,8.50942141370794e-06,3.6571155537670058e-06,9.564013329793727e-06,3.623239415600749e-05,1.1780056039563908e-05,1.4682649018035532e-05,Unknown
0.3621634619999998,8.509525510191606e-06,3.644168406291605e-06,9.56318580086582e-06,3.687143145580936e-05,1.1881664033788314e-05,1.4692524812976076e-05,Unknown
0.3626826919999999,8.48689282580837e-06,3.631180329446941e-06,9.564372617875054e-06,3.78365702938056e-05,1.2024633855587426e-05,1.4714488304976684e-05,Unknown
0.3632019230000001,8.425139708809202e-06,3.629904613365272e-06,9.56677397178842e-06,3.9193700983924256e-05,1.2273062181438828e-05,1.4758026319528003e-05,Unknown
0.3637211539999994,8.368998896829947e-06,3.628109197944561e-06,9.567149167617293e-06,4.058808874376848e-05,1.2611210710998092e-05,1.4813237742722028e-05,Unknown
0.36424038499999956,8.360091970861497e-06,3.625051931452208e-06,9.561749431774145e-06,4.16009066744836e-05,1.2906785868277805e-05,1.4831717784966554e-05,Unknown
0.36475961499999965,8.368319405576068e-06,3.62378565705667e-06,9.552862680650468e-06,4.215612720395404e-05,1.3047248996900524e-05,1.4779317471061864e-05,Unknown
0.3652788459999998,8.367890238371525e-06,3.627670913554983e-06,9.547489143717784e-06,4.2429778499372426e-05,1.3064693839169816e-05,1.4702991177756867e-05,Unknown
0.365798077,8.360876767523593e-06,3.6413934802682486e-06,9.555792573126537e-06,4.259081690644201e-05,1.3071044797280135e-05,1.4676481688874271e-05,Unknown
0.3663173080000002,8.352706227204203e-06,3.65531063746757e-06,9.591127516001048e-06,4.272036752344411e-05,1.3160728219029031e-05,1.4689015986881882e-05,Unknown
0.3668365379999994,8.350529382292588e-06,3.658828579964068e-06,9.667580086849269e-06,4.283510733145128e-05,1.3421676758923355e-05,1.468615843123492e-05,Unknown
0.36735576899999955,8.35120452506478e-06,3.657063105654588e-06,9.79978965894304e-06,4.29188505325812e-05,1.3923817528375414e-05,1.4675294362878403e-05,Unknown
0.36787499999999973,8.359969416423328e-06,3.656667291396285e-06,9.995778409826568e-06,4.296086557168819e-05,1.459140722491879e-05,1.4682092903042268e-05,Unknown
0.3683942309999999,8.39434353278616e-06,3.6606405426635614e-06,1.0243345721584354e-05,4.297191021710566e-05,1.5192378932024837e-05,1.4695463114288376e-05,Unknown
0.3689134620000001,8.44056326586496e-06,3.670855923319863e-06,1.0510385658877012e-05,4.297006080042984e-05,1.5559392861579437e-05,1.470382412153104e-05,Unknown
0.3694326920000002,8.465607965923815e-06,3.689260650074068e-06,1.0761462254882034e-05,4.2967398206004185e-05,1.5714583490329393e-05,1.4669243150207555e-05,Unknown
0.36995192299999946,8.468632703732874e-06,3.720109206786416e-06,1.098260694525913e-05,4.296909037815811e-05,1.5765196728939382e-05,1.453224455162078e-05,Unknown
0.37047115399999964,8.465670133982749e-06,3.770895546336945e-06,1.1179949030010537e-05,4.2976396543844896e-05,1.578380108111086e-05,1.4353371211528877e-05,Unknown
0.3709903849999998,8.465096378139994e-06,3.8390731995974345e-06,1.1357664042525406e-05,4.298938700062916e-05,1.579505182641201e-05,1.4289366459716511e-05,Unknown
0.3715096149999999,8.466929483543221e-06,3.900748311547682e-06,1.1519792546200449e-05,4.301005613490299e-05,1.5803653415861004e-05,1.4356395273095208e-05,Unknown
0.3720288460000001,8.446531929462161e-06,3.939876107614356e-06,1.166256457943446e-05,4.3044185490769015e-05,1.5808201462188662e-05,1.443425528821511e-05,Unknown
0.37254807699999937,8.398268459629018e-06,3.962711899106908e-06,1.1773812538935945e-05,4.310339597827302e-05,1.5808369106869494e-05,1.4467494113638796e-05,Unknown
0.37306730799999954,8.373927648743275e-06,3.9823903169213925e-06,1.1865473012493156e-05,4.3207634322557474e-05,1.5809239281062138e-05,1.4476207752561106e-05,Unknown
0.37358653799999963,8.396087403870595e-06,4.007425785691818e-06,1.1975904408693391e-05,4.337436729134231e-05,1.5815710843648555e-05,1.44768769332131e-05,Unknown
0.3741057689999998,8.424852407772637e-06,4.026033119888933e-06,1.2147567394698868e-05,4.3597416917182096e-05,1.5823238783484096e-05,1.4455306166776823e-05,Unknown
0.374625,8.436397728899422e-06,4.027471879863416e-06,1.2393562660420947e-05,4.384890239946719e-05,1.5825795337032072e-05,1.438058055074452e-05,Unknown
0.37514423100000016,8.436804302452778e-06,4.024569784703644e-06,1.266286531626e-05,4.410517605353363e-05,1.582574817147189e-05,1.4274474274189218e-05,Unknown
0.37566346199999945,8.442428772385386e-06,4.025527376610621e-06,1.2878452606160065e-05,4.436036842996712e-05,1.5825617581604605e-05,1.419735414878216e-05,Unknown
0.37618269199999954,8.473811478521308e-06,4.029334326848736e-06,1.30102785975748e-05,4.461912681538637e-05,1.5824718554761525e-05,1.4164006910345187e-05,Unknown
0.3767019229999997,8.510241843465135e-06,4.0370633503041146e-06,1.3075694704454267e-05,4.48768735351968e-05,1.582347434698705e-05,1.4157160441268911e-05,Unknown
0.3772211539999999,8.51850964893099e-06,4.042228900103118e-06,1.3097984065393214e-05,4.509399247366968e-05,1.582227814368715e-05,1.4176698650818187e-05,Unknown
0.37774038500000007,8.514041044808769e-06,4.041157549536736e-06,1.3095268374084138e-05,4.521194470699213e-05,1.5822134628835578e-05,1.4233404295396292e-05,Unknown
0.37825961500000016,8.512071398742002e-06,4.044326708239147e-06,1.3095665793438474e-05,4.523362107411705e-05,1.582638839834895e-05,1.431492711968665e-05,Unknown
0.37877884599999945,8.510997850762817e-06,4.064541868451445e-06,1.3142652500246972e-05,4.5233637687844565e-05,1.5834279822221642e-05,1.4388701703977911e-05,Unknown
0.3792980769999996,8.507582734375684e-06,4.09694059151591e-06,1.327700311722168e-05,4.524414890906858e-05,1.5838397536856877e-05,1.4439120926110529e-05,Unknown
0.3798173079999998,8.4859128556202e-06,4.115512427569025e-06,1.350939399019746e-05,4.52421937581258e-05,1.5838009725069152e-05,1.447231754901804e-05,Unknown
0.3803365379999999,8.45002779091365e-06,4.11342897920615e-06,1.3805299679485462e-05,4.524846029330424e-05,1.584711602149729e-05,1.4490928732518128e-05,Unknown
0.38085576900000007,8.418288923906238e-06,4.1150765477064055e-06,1.4105675773055244e-05,4.5299489302031775e-05,1.5879492944514517e-05,1.4491752234295244e-05,Unknown
0.38137499999999935,8.390510089976787e-06,4.130204838919524e-06,1.43690250229224e-05,4.536970078674511e-05,1.5927147122107098e-05,1.4501161727597464e-05,Unknown
0.38189423099999953,8.354379073378119e-06,4.151681839979794e-06,1.4583976680598992e-05,4.5408683220769486e-05,1.5964738449361902e-05,1.4546916859899805e-05,Unknown
0.3824134619999997,8.300412360420998e-06,4.18441031529735e-06,1.4749010286500718e-05,4.5401306759912497e-05,1.598153878993319e-05,1.4607334119722616e-05,Unknown
0.3829326919999998,8.234851344882642e-06,4.2261389021582105e-06,1.4859211080633217e-05,4.535262647715211e-05,1.5988645665837263e-05,1.4679497121249144e-05,Unknown
0.383451923,8.175802619415554e-06,4.2524694160804245e-06,1.4914983589998664e-05,4.525584083163844e-05,1.599603815004022e-05,1.4828958852391467e-05,Unknown
0.38397115400000015,8.136646993810611e-06,4.252844608245858e-06,1.4930126330961266e-05,4.510716894520487e-05,1.6010662572596368e-05,1.514077783741784e-05,Unknown
0.38449038499999943,8.145317166063187e-06,4.245552242374363e-06,1.4924493948938883e-05,4.493460437115612e-05,1.6035535383445674e-05,1.5498199917744556e-05,Unknown
