Time,Rectus Femoris,Vastus Medialis,Vastus Lateralis,Bicep Femoris,Tibialis,Gastrocnemius Medialis,Activity
0.00025961500000004634,1.7796695306214748e-05,5.959311476076194e-06,5.018559845072536e-06,6.14421977752178e-06,2.7524196807615604e-05,1.231771464777919e-05,Unknown
0.0007788460000002217,1.777889986268366e-05,5.954527358553297e-06,4.9917452369784825e-06,6.144573285982769e-06,2.751189811975385e-05,1.2442991800210304e-05,Unknown
0.001298076999999509,1.7773886887505053e-05,5.9468511369498335e-06,4.97865654995163e-06,6.128873662948171e-06,2.7493954851800437e-05,1.2448055887444556e-05,Unknown
0.0018173079999996844,1.7776915570481166e-05,5.935277972176895e-06,4.971439005319348e-06,6.101598391047995e-06,2.7473821597974983e-05,1.2514482501846012e-05,Unknown
0.002336537999999777,1.7780641661678173e-05,5.922906196896438e-06,4.973293097959391e-06,6.067270237308219e-06,2.745462275139376e-05,1.27193712548565e-05,Unknown
0.0028557689999999525,1.778366416932584e-05,5.913481267866248e-06,4.982324959913763e-06,6.029411190970255e-06,2.7442799915619944e-05,1.2905236051176851e-05,Unknown
0.003375000000000128,1.7785703757504868e-05,5.907033517612943e-06,4.9783754429790576e-06,5.997108889829125e-06,2.7443150995289813e-05,1.3017934565937004e-05,Unknown
0.0038942310000003033,1.7778691521937513e-05,5.900648972730208e-06,4.9427628433985344e-06,5.9762142139125055e-06,2.744712300617096e-05,1.3132985712673735e-05,Unknown
0.0044134619999995905,1.7754133350210587e-05,5.889417607098426e-06,4.885664226930941e-06,5.96587450943963e-06,2.7445843253514632e-05,1.3332707072888531e-05,Unknown
0.004932691999999683,1.77156084346224e-05,5.867937000216516e-06,4.833642161923993e-06,5.962799279782228e-06,2.744251051604824e-05,1.3611773455096554e-05,Unknown
0.005451922999999859,1.7666793665422655e-05,5.836108441243007e-06,4.79659613746974e-06,5.962905990536335e-06,2.744086234752462e-05,1.3866926256307635e-05,Unknown
0.005971154000000034,1.7604297313796303e-05,5.801949181725905e-06,4.762088481399117e-06,5.963627729944777e-06,2.744129837298779e-05,1.403990676560308e-05,Unknown
0.0064903850000002095,1.753360665730898e-05,5.774987940508421e-06,4.721662297027602e-06,5.963001486434792e-06,2.744210870873185e-05,1.412509293844966e-05,Unknown
0.007009615000000302,1.7468006777632816e-05,5.759073805133829e-06,4.698671880798071e-06,5.959686767103728e-06,2.7440739163896382e-05,1.4133059265805705e-05,Unknown
0.007528845999999589,1.741372931778371e-05,5.7521079237242365e-06,4.707327292330602e-06,5.9513805384836615e-06,2.7433878007571422e-05,1.4165191280674951e-05,Unknown
0.008048076999999765,1.7365310355941552e-05,5.750296450578684e-06,4.7220629938200126e-06,5.942616771291128e-06,2.7406123354962483e-05,1.4298681717857948e-05,Unknown
0.00856730799999994,1.7306717696819e-05,5.751068070926752e-06,4.728369636371184e-06,5.951559171786948e-06,2.7353154241956705e-05,1.4386636120328373e-05,Unknown
0.009086538000000033,1.723298506243503e-05,5.753508936321137e-06,4.730024501849227e-06,5.97598099225486e-06,2.730487212309115e-05,1.4386824466106642e-05,Unknown
0.009605769000000208,1.716616454717895e-05,5.75601005222329e-06,4.7323451920519104e-06,5.988053213310816e-06,2.728326572987269e-05,1.44263217595368e-05,Unknown
0.010124999999999496,1.712280423974622e-05,5.7561043967799895e-06,4.749322044695364e-06,5.986274681363807e-06,2.7276874737363128e-05,1.4453713510659924e-05,Unknown
0.010644230999999671,1.7093322758785566e-05,5.753836771771321e-06,4.7790824852265885e-06,5.989350950184006e-06,2.726909978158186e-05,1.445921901283345e-05,Unknown
0.011163461999999846,1.706197352839254e-05,5.749886176954321e-06,4.80089973550042e-06,5.996643442042726e-06,2.7261129302283865e-05,1.4542909772039171e-05,Unknown
0.011682691999999939,1.7022328144082894e-05,5.7441777885104046e-06,4.808666686266958e-06,6.001308062640583e-06,2.7261676879589395e-05,1.4637867224284848e-05,Unknown
0.012201923000000114,1.6986002784644168e-05,5.735813275385086e-06,4.809504112968854e-06,6.005789436768504e-06,2.7256764270212154e-05,1.4664093390469126e-05,Unknown
0.01272115400000029,1.696753973612258e-05,5.720846265246991e-06,4.80591083884164e-06,6.013719387564667e-06,2.72163007444358e-05,1.4663788304518093e-05,Unknown
0.013240384999999577,1.6961913576469367e-05,5.698570075610928e-06,4.791823773588996e-06,6.028020198405023e-06,2.7144010301273804e-05,1.4664782423169923e-05,Unknown
0.01375961499999967,1.6958871961818497e-05,5.676073392334681e-06,4.7577606486825374e-06,6.046655239622948e-06,2.707466296861412e-05,1.4665087263247824e-05,Unknown
0.014278845999999845,1.6953318192177225e-05,5.66010858292296e-06,4.705475061709018e-06,6.060178801558363e-06,2.7021259846766213e-05,1.4670851195664263e-05,Unknown
0.01479807700000002,1.694555398782983e-05,5.650203231962653e-06,4.652395262402137e-06,6.064877909057987e-06,2.6972685156730883e-05,1.4678237545015333e-05,Unknown
0.015317308000000196,1.6942518654676534e-05,5.641999949580705e-06,4.612234427047146e-06,6.065514634080486e-06,2.6934749220696907e-05,1.468247403986616e-05,Unknown
0.01583653800000029,1.6943348816984954e-05,5.631907436548295e-06,4.582568066875262e-06,6.065392497867403e-06,2.6942067040315645e-05,1.4686420320877656e-05,Unknown
0.016355768999999576,1.6943353775833668e-05,5.616320766258458e-06,4.554035530033814e-06,6.064871775296753e-06,2.700847386702057e-05,1.4695960356888644e-05,Unknown
0.01687499999999975,1.694467796079222e-05,5.5940212130490905e-06,4.520160424682271e-06,6.064106284715266e-06,2.706888783662897e-05,1.4713938653826696e-05,Unknown
0.017394230999999927,1.694708827501541e-05,5.567600301932516e-06,4.483262648117031e-06,6.063832308643672e-06,2.7065502076779894e-05,1.4728060986575043e-05,Unknown
0.017913462000000102,1.6947957619756264e-05,5.538348133791967e-06,4.450504407036274e-06,6.067709257588413e-06,2.7086756162254707e-05,1.4729498121327491e-05,Unknown
0.018432692000000195,1.694770157952e-05,5.505389540114962e-06,4.4223929814147286e-06,6.085258796190571e-06,2.722193262415517e-05,1.4734064137197725e-05,Unknown
0.018951922999999482,1.6946062910965476e-05,5.46977245907673e-06,4.391981771596863e-06,6.119608692658137e-06,2.7372342550799685e-05,1.475433565339307e-05,Unknown
0.019471153999999657,1.6942387077090125e-05,5.435708286497218e-06,4.3526906964995775e-06,6.14552534449522e-06,2.739371088260637e-05,1.478240012076751e-05,Unknown
0.019990384999999833,1.693870329587665e-05,5.405470313892329e-06,4.308898858895098e-06,6.138185744827487e-06,2.728141841731972e-05,1.4811091816742756e-05,Unknown
0.020509614999999926,1.6936504800100644e-05,5.373184937682867e-06,4.280316441342644e-06,6.1414441175408805e-06,2.718336441850596e-05,1.48420902639387e-05,Unknown
0.0210288460000001,1.693502293439886e-05,5.327954008817908e-06,4.282083507141975e-06,6.255462608847022e-06,2.718145925525593e-05,1.4876249231004623e-05,Unknown
0.021548077000000276,1.693426873318483e-05,5.272644623323803e-06,4.300885434867641e-06,6.524969857363587e-06,2.718619177941629e-05,1.4911868211778748e-05,Unknown
0.022067307999999564,1.6934430041700832e-05,5.239913082526016e-06,4.313452438045443e-06,6.879530951492135e-06,2.7182036782670932e-05,1.4955871643982666e-05,Unknown
0.022586537999999656,1.693472906373107e-05,5.256163822255763e-06,4.313101147768374e-06,7.2097871629116275e-06,2.7193713950488432e-05,1.5022375884088748e-05,Unknown
0.02310576899999983,1.6934734439754497e-05,5.300818775456613e-06,4.305392344486087e-06,7.460571808385353e-06,2.711816446496469e-05,1.5094225884570268e-05,Unknown
0.023625000000000007,1.6922015252692452e-05,5.340427607269692e-06,4.297037965724623e-06,7.637739125970924e-06,2.6901766163682267e-05,1.511501538029233e-05,Unknown
0.024144231000000183,1.6836904617411167e-05,5.363234224677819e-06,4.281094604653788e-06,7.76766017906677e-06,2.6635328057554133e-05,1.5118576891574907e-05,Unknown
0.024663462000000358,1.656030748612587e-05,5.371257038996551e-06,4.239958911149659e-06,7.87359022173085e-06,2.641090810139354e-05,1.517251335124194e-05,Unknown
0.025182691999999562,1.5979668383929482e-05,5.372023078077861e-06,4.158862469833357e-06,7.970833034903634e-06,2.6247289495170516e-05,1.520072824669777e-05,Unknown
0.025701922999999738,1.508043332977202e-05,5.372043564935631e-06,4.047566617334216e-06,8.056886707205369e-06,2.61328286743169e-05,1.520006575399446e-05,Unknown
0.026221153999999913,1.3966909385206262e-05,5.373245189829448e-06,3.9473368809134855e-06,8.102720441906913e-06,2.6067702727267787e-05,1.5214763400983125e-05,Unknown
0.02674038500000009,1.2821409940064031e-05,5.375616057759856e-06,3.886566963581868e-06,8.100871616909886e-06,2.6054517964505984e-05,1.5215276480073811e-05,Unknown
0.02725961500000018,1.1847212165836164e-05,5.378894308782425e-06,3.863303805414221e-06,8.14191436368211e-06,2.6054965995514013e-05,1.5283069910822515e-05,Unknown
0.027778846000000357,1.1178715316228271e-05,5.380569315405243e-06,3.856573995684134e-06,8.333973598723653e-06,2.5993544564510025e-05,1.53922335464526e-05,Unknown
0.028298076999999644,1.0803888188826169e-05,5.3699690869341945e-06,3.842318307353462e-06,8.66901147126297e-06,2.5830685588679346e-05,1.5435667175212494e-05,Unknown
0.02881730799999982,1.0613131045938158e-05,5.332995905790619e-06,3.824165555161618e-06,9.10945160689396e-06,2.5594446996983386e-05,1.5445197514731284e-05,Unknown
0.029336537999999912,1.0510085971248184e-05,5.274224783138275e-06,3.814046314118998e-06,9.687516266846175e-06,2.533420594270986e-05,1.5469207323950712e-05,Unknown
0.029855769000000087,1.0451630946213818e-05,5.217542580490215e-06,3.803222658456222e-06,1.040090642996324e-05,2.508143533019457e-05,1.556291709899188e-05,Unknown
0.030375000000000263,1.0425022611825989e-05,5.179431598200931e-06,3.7848291493800407e-06,1.1064722982362235e-05,2.485343666281365e-05,1.5689879916447354e-05,Unknown
0.03089423099999955,1.041826412672877e-05,5.160203802644903e-06,3.759631373236244e-06,1.1455049654746936e-05,2.4664732207381017e-05,1.5747230471801156e-05,Unknown
0.031413461999999726,1.041778881978365e-05,5.143573091565997e-06,3.7223763896174526e-06,1.1578731639744688e-05,2.452092955494367e-05,1.575418690149638e-05,Unknown
0.03193269199999982,1.0417362184619124e-05,5.108937982403593e-06,3.677651836120856e-06,1.1593796214582834e-05,2.441070229415486e-05,1.575725061725144e-05,Unknown
0.032451922999999994,1.0412086991845406e-05,5.060085085710886e-06,3.643334017407275e-06,1.1591828012062957e-05,2.431511639081006e-05,1.5791861909732332e-05,Unknown
0.03297115400000017,1.0402572686044769e-05,5.017292327393443e-06,3.626264420761625e-06,1.1592818328429723e-05,2.422467722370239e-05,1.591300062292466e-05,Unknown
0.033490385000000344,1.0398288934536796e-05,4.990623872062717e-06,3.6197280807192623e-06,1.1596315308511833e-05,2.41518265474409e-05,1.606153916131904e-05,Unknown
0.03400961499999955,1.039832980586418e-05,4.9780425601076924e-06,3.614222722656337e-06,1.1595049417653095e-05,2.412107587489429e-05,1.6122687956095722e-05,Unknown
0.034528845999999724,1.0398417760543789e-05,4.974028274106043e-06,3.6048064492140153e-06,1.159547073235685e-05,2.412146420288647e-05,1.6120300410166735e-05,Unknown
0.0350480769999999,1.0395287283146544e-05,4.973910093203452e-06,3.596578464323976e-06,1.161120136907758e-05,2.4085468134629145e-05,1.6155235256612365e-05,Unknown
0.035567308000000075,1.0363786196950933e-05,4.976976613229069e-06,3.594111412202877e-06,1.163938484398005e-05,2.3964975475469507e-05,1.6238823028811233e-05,Unknown
0.03608653800000017,1.0289389822010767e-05,4.983428087715901e-06,3.5945079641924617e-06,1.1661613833209848e-05,2.3805546645087875e-05,1.631030546033913e-05,Unknown
0.03660576900000034,1.0196657032773911e-05,4.990727491610664e-06,3.5953088615320675e-06,1.166659386659048e-05,2.368529456098898e-05,1.6342090566292137e-05,Unknown
0.03712499999999963,1.0104379415847402e-05,4.99420828405052e-06,3.5970675867372094e-06,1.16618139496464e-05,2.3618532820107357e-05,1.6351262397094202e-05,Unknown
0.037644230999999806,1.000365357978072e-05,4.991934144331424e-06,3.600001913707892e-06,1.1657310967927388e-05,2.3569879957920618e-05,1.6354714374563556e-05,Unknown
0.03816346199999998,9.875816872363911e-06,4.990461606852051e-06,3.598869704566956e-06,1.1654189832020068e-05,2.3507663486921607e-05,1.635646067312199e-05,Unknown
0.038682692000000074,9.710977157553611e-06,4.991055157232589e-06,3.5780990708087804e-06,1.1652298226819348e-05,2.3428997535149044e-05,1.6357065482784108e-05,Unknown
0.03920192300000025,9.53089374229281e-06,4.987706785136583e-06,3.529307206828493e-06,1.1652246041657755e-05,2.3371340835956383e-05,1.635715458225209e-05,Unknown
0.03972115399999954,9.364164730332464e-06,4.980769423173817e-06,3.469635764691272e-06,1.1654034085293884e-05,2.3366217972504575e-05,1.635575470773087e-05,Unknown
0.04024038499999971,9.202461990502416e-06,4.971754404267924e-06,3.423001127955174e-06,1.1654573428144444e-05,2.3369635039043584e-05,1.6356409504228938e-05,Unknown
0.040759614999999805,9.011879822833636e-06,4.9598915816886975e-06,3.400630823130762e-06,1.1648607127823971e-05,2.330922896904402e-05,1.637317399474423e-05,Unknown
0.04127884599999998,8.752999304555776e-06,4.947074307895048e-06,3.398576331085115e-06,1.1639796889899656e-05,2.3199467028720024e-05,1.6411149354291256e-05,Unknown
0.041798077000000156,8.421542731543197e-06,4.939556002730799e-06,3.4026551875768563e-06,1.163759560911484e-05,2.3123320158381057e-05,1.6453115963301468e-05,Unknown
0.04231730800000033,8.076470544150961e-06,4.939049459225283e-06,3.403929906617428e-06,1.1643280157690865e-05,2.31123786813541e-05,1.6483823763274968e-05,Unknown
0.042836537999999535,7.775147148691789e-06,4.9397005081796735e-06,3.3980782465781925e-06,1.1653997116780274e-05,2.312949959852348e-05,1.650564746368614e-05,Unknown
0.04335576899999971,7.521148677573667e-06,4.939451561746476e-06,3.378752281360055e-06,1.1670140300617996e-05,2.314254360557188e-05,1.6526652661890198e-05,Unknown
0.043874999999999886,7.295006218224949e-06,4.93992737423588e-06,3.3415283422178126e-06,1.168890473030636e-05,2.3147680016718903e-05,1.6547515920466907e-05,Unknown
0.04439423100000006,7.090393033299486e-06,4.940645535688554e-06,3.30215450324049e-06,1.170437939942098e-05,2.3147424126148366e-05,1.6558068033740344e-05,Unknown
0.04491346200000024,6.909306136930567e-06,4.940758267423031e-06,3.293237867424175e-06,1.1714171283302805e-05,2.3147780400297025e-05,1.6557266200521063e-05,Unknown
0.04543269200000033,6.751453418875497e-06,4.940725343891611e-06,3.3008167228025338e-06,1.171920894035496e-05,2.3159664488569715e-05,1.6560276923114587e-05,Unknown
0.04595192299999962,6.605584683156766e-06,4.940609016836181e-06,3.2832060723886367e-06,1.1727937742534534e-05,2.3184182187142356e-05,1.656689276443655e-05,Unknown
0.04647115399999979,6.459743726420829e-06,4.939176884921057e-06,3.2535977077051e-06,1.1752913264304486e-05,2.321091866015333e-05,1.656735431625667e-05,Unknown
0.04699038499999997,6.33532031617653e-06,4.935377503892021e-06,3.2383042306957773e-06,1.17932661751563e-05,2.323225717166955e-05,1.6570262682807037e-05,Unknown
0.04750961500000006,6.258070111599902e-06,4.932057628959767e-06,3.23027322760509e-06,1.1836473271373627e-05,2.3248354758930025e-05,1.6577385382296134e-05,Unknown
0.048028846000000236,6.219054738765914e-06,4.934450443630989e-06,3.226699226675324e-06,1.1875573232236644e-05,2.3262454251186523e-05,1.657665173440104e-05,Unknown
0.04854807699999952,6.1978224416248695e-06,4.943518499946659e-06,3.2299438032776963e-06,1.1911681878199782e-05,2.3256473845738e-05,1.657873493690503e-05,Unknown
0.0490673079999997,6.172783303726691e-06,4.955435267553816e-06,3.231716947025166e-06,1.1944951726457791e-05,2.3196737526821664e-05,1.6600021582635205e-05,Unknown
0.04958653799999979,6.139731448476337e-06,4.966982659219407e-06,3.231988452730097e-06,1.1970001037074647e-05,2.3109694898121133e-05,1.6623183988577066e-05,Unknown
0.05010576899999997,6.120103691294784e-06,4.97775467824472e-06,3.2340045814688622e-06,1.1982917778165198e-05,2.3063386799876297e-05,1.6628918827283143e-05,Unknown
0.05062500000000014,6.117254852076376e-06,4.98567302853415e-06,3.2304301551948005e-06,1.1987202294867634e-05,2.3059685606252503e-05,1.6628856674475913e-05,Unknown
0.05114423100000032,6.125288068640403e-06,4.987976042539152e-06,3.2209684212662604e-06,1.198620102468801e-05,2.305765996163636e-05,1.663050552228346e-05,Unknown
0.051663461999999605,6.146957256949731e-06,4.989009419173642e-06,3.214483447514289e-06,1.1979553195449367e-05,2.30470831836122e-05,1.6631046309702052e-05,Unknown
0.0521826919999997,6.166652502668435e-06,4.992799127882496e-06,3.215735280767741e-06,1.1977047709980766e-05,2.3037153039776733e-05,1.6646675116752046e-05,Unknown
0.05270192299999987,6.169557452416283e-06,4.9931911856317456e-06,3.2237459236956648e-06,1.2003635580096112e-05,2.3041061334999524e-05,1.6671977684657795e-05,Unknown
0.05322115400000005,6.155333729676459e-06,4.985782714812351e-06,3.2333403271946904e-06,1.205998328030457e-05,2.309473109751622e-05,1.6675321137089755e-05,Unknown
0.053740385000000224,6.117339081608664e-06,4.974086355694574e-06,3.2404518294561897e-06,1.2110540703656004e-05,2.3224457042605703e-05,1.6672280490369326e-05,Unknown
0.054259615000000316,6.062746832143513e-06,4.963562733162301e-06,3.2440411719036937e-06,1.2139791620189796e-05,2.335565096415035e-05,1.668349078856368e-05,Unknown
0.054778845999999604,6.01917224997509e-06,4.959607370165841e-06,3.244449124452802e-06,1.2164951830241556e-05,2.338546812896481e-05,1.668585190981777e-05,Unknown
0.05529807699999978,5.99471900612511e-06,4.960151047156879e-06,3.24413687313519e-06,1.2209150267906992e-05,2.3343560120560617e-05,1.6678077346067107e-05,Unknown
0.055817307999999954,5.973884468405106e-06,4.961040839592746e-06,3.244908389461812e-06,1.2278319726243333e-05,2.330903937843226e-05,1.6672819562022033e-05,Unknown
0.05633653800000005,5.937316698887802e-06,4.963377366743646e-06,3.24964832544157e-06,1.234600361821173e-05,2.3294820673214496e-05,1.6666420138418592e-05,Unknown
0.05685576900000022,5.878020632518395e-06,4.962643582187127e-06,3.267730020400932e-06,1.2387129032560991e-05,2.3300357567888558e-05,1.6662569909647026e-05,Unknown
0.05737499999999951,5.81894456874641e-06,4.954955224110619e-06,3.299531446026936e-06,1.2404102982013173e-05,2.334625576878027e-05,1.6662691321301384e-05,Unknown
0.057894230999999685,5.779228898695305e-06,4.947931559061564e-06,3.3271915231129463e-06,1.2407802138947094e-05,2.3492474070204884e-05,1.6662753065597847e-05,Unknown
0.05841346199999986,5.7491797170445e-06,4.94599457717918e-06,3.3391031069133658e-06,1.2403277707729135e-05,2.3724398873560105e-05,1.666095541375564e-05,Unknown
0.05893269199999995,5.712272789934078e-06,4.9457028166256575e-06,3.3410994239837434e-06,1.2393973344381372e-05,2.378800744266253e-05,1.6657864130534154e-05,Unknown
0.05945192300000013,5.657063909087498e-06,4.944866341410442e-06,3.340383418978044e-06,1.2387870975126064e-05,2.3470031517206373e-05,1.6660067925881177e-05,Unknown
0.059971154000000304,5.576524166796828e-06,4.940411282287394e-06,3.3383148663655724e-06,1.2392894121285069e-05,2.2996703966355045e-05,1.6676304242996042e-05,Unknown
0.06049038499999959,5.460545786351367e-06,4.933250727209331e-06,3.335765603891129e-06,1.241188125519464e-05,2.276783355153037e-05,1.6731873990094763e-05,Unknown
0.061009614999999684,5.3169678691327295e-06,4.929565993683996e-06,3.3332918476187915e-06,1.2447522399431474e-05,2.27950812577069e-05,1.6888584222386843e-05,Unknown
0.06152884599999986,5.191815128905172e-06,4.929555465866996e-06,3.32929383184816e-06,1.2503642292011329e-05,2.2866249734657176e-05,1.717515477004101e-05,Unknown
0.062048077000000035,5.119154017262972e-06,4.929630596120601e-06,3.3220244553762635e-06,1.2576649446330088e-05,2.29096153846762e-05,1.746775100945489e-05,Unknown
0.06256730800000021,5.084465239253467e-06,4.929785280066685e-06,3.3129777476505778e-06,1.265356612255827e-05,2.29116471645568e-05,1.7606375040481656e-05,Unknown
0.0630865380000003,5.060207563222633e-06,4.9307026482865685e-06,3.3077561088810688e-06,1.272645515764043e-05,2.2895757505174784e-05,1.7609707368709967e-05,Unknown
0.06360576899999959,5.0145408268309415e-06,4.931333918988368e-06,3.311316134690071e-06,1.2801265197886266e-05,2.2905408830884516e-05,1.7672765759259513e-05,Unknown
0.06412499999999977,4.938911826657753e-06,4.931481677228091e-06,3.3254543300087896e-06,1.2888075817481356e-05,2.293245848405536e-05,1.804996586674367e-05,Unknown
0.06464423099999994,4.8830382795808e-06,4.930544103862411e-06,3.346520962204196e-06,1.2985142812834062e-05,2.294808192697323e-05,1.8797476972693743e-05,Unknown
0.06516346200000012,4.873983869243719e-06,4.926678397462063e-06,3.3683399770893074e-06,1.3077967353730848e-05,2.294679407373785e-05,1.9515503047795723e-05,Unknown
0.06568269200000021,4.878842369217976e-06,4.923285769335355e-06,3.391787395666615e-06,1.315743472829462e-05,2.29458220382731e-05,1.9803401696271908e-05,Unknown
0.0662019229999995,4.878790857954419e-06,4.9230558952246434e-06,3.4182842510299656e-06,1.32252991969399e-05,2.2948760155872623e-05,1.9823048696954817e-05,Unknown
0.06672115399999967,4.879590137600588e-06,4.922277584923669e-06,3.4409252262854185e-06,1.327924846898567e-05,2.2986943680104555e-05,1.982481528051172e-05,Unknown
0.06724038499999985,4.880549314997399e-06,4.92034888154613e-06,3.4509297222063926e-06,1.3305485809546024e-05,2.3082818236112773e-05,1.9829286921415703e-05,Unknown
0.06775961499999994,4.880588969273014e-06,4.9173867755401e-06,3.449782172094429e-06,1.330555051639074e-05,2.31790001262803e-05,1.9887479593073115e-05,Unknown
0.06827884600000012,4.882158565802714e-06,4.9106190919187054e-06,3.446398698966236e-06,1.3337726448511688e-05,2.3186027071977856e-05,1.9926820970661236e-05,Unknown
0.06879807700000029,4.8853824984115925e-06,4.897872004515879e-06,3.445427555549373e-06,1.3491831425327948e-05,2.3071896768118737e-05,1.993135959621771e-05,Unknown
0.06931730799999958,4.892339815549402e-06,4.8789905062233485e-06,3.4464141767782165e-06,1.3777664311460034e-05,2.292288638346837e-05,2.003206902348757e-05,Unknown
0.06983653799999967,4.900616894331075e-06,4.860994703769633e-06,3.447508363863565e-06,1.408017661090298e-05,2.2841581473990008e-05,2.0156356571240197e-05,Unknown
0.07035576899999985,4.901805355451685e-06,4.853804557096062e-06,3.4478231449368243e-06,1.428626365070764e-05,2.2821748931634727e-05,2.020268415708663e-05,Unknown
0.07087500000000002,4.899289698869518e-06,4.857680512325154e-06,3.4478757174615592e-06,1.4391830787196977e-05,2.2831102126272142e-05,2.0210234253623116e-05,Unknown
0.0713942310000002,4.899950960076512e-06,4.863333637644625e-06,3.450016791730075e-06,1.4448626094629711e-05,2.29331846814373e-05,2.021715423572841e-05,Unknown
0.07191346199999948,4.90425559878599e-06,4.863657837228273e-06,3.458118487745476e-06,1.4492117228554718e-05,2.3194795542091565e-05,2.024388769034509e-05,Unknown
0.07243269199999958,4.911784273378576e-06,4.860609289352179e-06,3.4681491546593488e-06,1.4527940232434e-05,2.3506587618456757e-05,2.0307507045769023e-05,Unknown
0.07295192299999975,4.912916307654034e-06,4.8586620162152e-06,3.4665019519993326e-06,1.4548560583945915e-05,2.3690214334851007e-05,2.0398193513060543e-05,Unknown
0.07347115399999993,4.907262841181092e-06,4.859183408618884e-06,3.45784095700748e-06,1.4560770219506815e-05,2.3727383390658727e-05,2.048627790186634e-05,Unknown
0.0739903850000001,4.908995288691458e-06,4.861852092493063e-06,3.460145686505721e-06,1.4586133377313707e-05,2.373067753025007e-05,2.054483293785736e-05,Unknown
0.0745096150000002,4.912196284073853e-06,4.865747770313903e-06,3.467337555054237e-06,1.4653361479070049e-05,2.380541319571142e-05,2.056787485130837e-05,Unknown
0.07502884599999948,4.910960631557222e-06,4.867373372338501e-06,3.468211106855652e-06,1.4765438880138584e-05,2.398658644465998e-05,2.0569102964423343e-05,Unknown
0.07554807699999966,4.917306419408174e-06,4.861412756593703e-06,3.466701211480061e-06,1.4871288388747636e-05,2.420114077627925e-05,2.057557692337773e-05,Unknown
0.07606730799999983,4.923835921501615e-06,4.845414872139162e-06,3.464650067238094e-06,1.4927645083472475e-05,2.4315936535307523e-05,2.065502892323214e-05,Unknown
0.07658653799999993,4.9214882394541744e-06,4.820032927375793e-06,3.45734170187768e-06,1.494583455773232e-05,2.432195452055944e-05,2.0900819000589654e-05,Unknown
0.0771057690000001,4.916433813638282e-06,4.788066080527203e-06,3.443899032613101e-06,1.4951117719982628e-05,2.434182010065076e-05,2.1241041625208036e-05,Unknown
0.07762500000000028,4.900147541395958e-06,4.74482554942497e-06,3.432515422193111e-06,1.4950729196458372e-05,2.437614369275822e-05,2.1432536346413464e-05,Unknown
0.07814423099999956,4.879127302552982e-06,4.677921581800633e-06,3.4288255029501152e-06,1.4944562393799782e-05,2.4303678454625228e-05,2.1434656827177024e-05,Unknown
0.07866346199999974,4.873258559300381e-06,4.595683289613784e-06,3.4295385773992405e-06,1.4937440054311932e-05,2.416371766532825e-05,2.1415830055923776e-05,Unknown
0.07918269199999983,4.873324536430287e-06,4.521703191236842e-06,3.429882763899237e-06,1.4933539386083787e-05,2.4102961909702665e-05,2.1434774370398776e-05,Unknown
0.07970192300000001,4.880598053516347e-06,4.4621940029184745e-06,3.4285691039640217e-06,1.4930666501481407e-05,2.410023537598275e-05,2.145461396382154e-05,Unknown
0.08022115400000018,4.90047523204328e-06,4.412447046721093e-06,3.4263575792447484e-06,1.4924315892504866e-05,2.4111658639560636e-05,2.1459331873362212e-05,Unknown
0.08074038500000036,4.90730033980272e-06,4.367121259805065e-06,3.4229646748602954e-06,1.4912540039739934e-05,2.425746687464613e-05,2.145078421842759e-05,Unknown
0.08125961499999956,4.897427522003561e-06,4.325891272491228e-06,3.41870807907492e-06,1.4901900176428884e-05,2.453127153062781e-05,2.1457722941702557e-05,Unknown
0.08177884599999974,4.891996163050619e-06,4.298718407569205e-06,3.416587145084642e-06,1.4902021018818192e-05,2.4632250523836635e-05,2.1498148387228516e-05,Unknown
0.08229807699999991,4.892796954335704e-06,4.288385296740209e-06,3.416602532597653e-06,1.4912367975331408e-05,2.4349274790263728e-05,2.152434897145934e-05,Unknown
0.08281730800000009,4.892375053763088e-06,4.285422314109626e-06,3.416325832986228e-06,1.492534864844014e-05,2.3979605270743955e-05,2.152346707438852e-05,Unknown
0.08333653800000018,4.884570918474197e-06,4.281834775801472e-06,3.423072993504134e-06,1.4935432304112538e-05,2.3917858823743043e-05,2.1576860468795315e-05,Unknown
0.08385576900000036,4.870178396509909e-06,4.27902078573997e-06,3.4382316101309865e-06,1.494098022895065e-05,2.3891004080870325e-05,2.169019406414355e-05,Unknown
0.08437499999999964,4.864877229254391e-06,4.284756833008445e-06,3.4438680494657828e-06,1.4943422027897984e-05,2.363487250555361e-05,2.177984870310469e-05,Unknown
0.08489423099999982,4.870283171530143e-06,4.300748363756924e-06,3.429249291047528e-06,1.4944026150452712e-05,2.370675652307487e-05,2.1828835846173394e-05,Unknown
0.085413462,4.871506311951818e-06,4.310875068644743e-06,3.3936536756204982e-06,1.4943031544222969e-05,2.428414356216981e-05,2.184339447788306e-05,Unknown
0.08593269200000009,4.872235295170568e-06,4.287033540184794e-06,3.348529911891964e-06,1.4941847218157667e-05,2.460148090261442e-05,2.1755410376808667e-05,Unknown
0.08645192300000026,4.875770822992781e-06,4.20579059910854e-06,3.319806709413023e-06,1.494431589782769e-05,2.4456381599317752e-05,2.1521159174999115e-05,Unknown
0.08697115399999955,4.876203891522169e-06,4.092571480128434e-06,3.313528088673569e-06,1.4956778303546774e-05,2.4356293223697187e-05,2.127894040853484e-05,Unknown
0.08749038499999973,4.875301889962452e-06,4.014269296668217e-06,3.31843530348755e-06,1.4982620745208488e-05,2.4378607150394792e-05,2.1211981972153257e-05,Unknown
0.08800961499999982,4.873208171686327e-06,3.982980819725636e-06,3.325117845710933e-06,1.5013273102924988e-05,2.4290245193631196e-05,2.127154560865495e-05,Unknown
0.088528846,4.874518085079907e-06,3.965484162048502e-06,3.3269682171718167e-06,1.503178115645398e-05,2.411975040624412e-05,2.128898232116074e-05,Unknown
0.08904807700000017,4.857496563337639e-06,3.937020410241419e-06,3.3256799210795018e-06,1.5032693799499649e-05,2.399108098038165e-05,2.1240429257904683e-05,Unknown
0.08956730800000035,4.783112201196272e-06,3.893395424772221e-06,3.32334427009862e-06,1.5024798811903296e-05,2.3907896583939677e-05,2.1200274116181505e-05,Unknown
0.09008653799999955,4.689364965940879e-06,3.858884402297711e-06,3.321049113419801e-06,1.5010727210051764e-05,2.378187610380752e-05,2.119638588250995e-05,Unknown
0.09060576899999973,4.639188671675723e-06,3.840416101172591e-06,3.322805060854302e-06,1.4988494601194634e-05,2.354648975516544e-05,2.120515621351296e-05,Unknown
0.0911249999999999,4.621568194273549e-06,3.821262133532015e-06,3.331691305300236e-06,1.4965584867099348e-05,2.330055674352966e-05,2.120075277059369e-05,Unknown
0.09164423100000008,4.603446965123151e-06,3.7901211273388327e-06,3.3440452910982314e-06,1.4949234850413864e-05,2.320527002669092e-05,2.122528209965854e-05,Unknown
0.09216346200000025,4.557992074572252e-06,3.748383309170322e-06,3.34650020217551e-06,1.4937467157619672e-05,2.3205843029252115e-05,2.135138800558324e-05,Unknown
0.09268269200000034,4.473536071963036e-06,3.7190743933471377e-06,3.3363632044192503e-06,1.4926311894605218e-05,2.3176014711847e-05,2.149522567799432e-05,Unknown
0.09320192299999963,4.391092248061623e-06,3.7144743012849487e-06,3.3276610957013957e-06,1.491478897585975e-05,2.3165438954297985e-05,2.154217906168964e-05,Unknown
0.0937211539999998,4.351432572570224e-06,3.7123525964149735e-06,3.3289750304950417e-06,1.4904960669277889e-05,2.3157843172458074e-05,2.154274227588237e-05,Unknown
0.09424038499999998,4.341209394329027e-06,3.695231357447357e-06,3.336796089575247e-06,1.4899950395293444e-05,2.311836042393052e-05,2.154319415134781e-05,Unknown
0.09475961500000007,4.336118302731013e-06,3.6687820253469153e-06,3.343822786677527e-06,1.4901064230682234e-05,2.3135052797508432e-05,2.1540733189890173e-05,Unknown
0.09527884600000025,4.322265603449659e-06,3.643288032636913e-06,3.34589089022844e-06,1.490808359181736e-05,2.2981288571882907e-05,2.1525953774166936e-05,Unknown
0.09579807699999954,4.292938618745166e-06,3.623633311451581e-06,3.344143793066607e-06,1.4919516024950604e-05,2.2494163417508392e-05,2.1460068171540866e-05,Unknown
0.09631730799999971,4.267396007543615e-06,3.609232385234956e-06,3.3452810070327986e-06,1.49312723678384e-05,2.2079191570186472e-05,2.136161415236645e-05,Unknown
0.0968365379999998,4.259195876287814e-06,3.5983631721305968e-06,3.349630955128309e-06,1.493883627940412e-05,2.196656316874373e-05,2.132146079489612e-05,Unknown
0.09735576899999998,4.2554216416234925e-06,3.5905395031419263e-06,3.331091726705254e-06,1.494124316051793e-05,2.196869975434599e-05,2.1390642251879948e-05,Unknown
0.09787500000000016,4.256331865762153e-06,3.5848406528992907e-06,3.273251011196928e-06,1.4941073730543348e-05,2.1974287012888865e-05,2.153777331658939e-05,Unknown
0.09839423100000033,4.264254898280257e-06,3.5793426450752066e-06,3.2147076860048184e-06,1.494122936633346e-05,2.1971669912922448e-05,2.1682276368281304e-05,Unknown
0.09891346199999962,4.265580797509096e-06,3.57329138597778e-06,3.1921031721093943e-06,1.494284286341502e-05,2.196252169020437e-05,2.1753804577106992e-05,Unknown
0.09943269199999971,4.262123465254362e-06,3.5684370994646467e-06,3.1905665414485498e-06,1.4945478848734122e-05,2.1969284477832688e-05,2.1768509535188608e-05,Unknown
0.09995192299999989,4.261888681062759e-06,3.566886885687624e-06,3.1901411438428906e-06,1.494789181583281e-05,2.2008340200135437e-05,2.1710589019890727e-05,Unknown
0.10047115400000006,4.260812270613356e-06,3.5661194937421926e-06,3.1914259517000163e-06,1.494816945861552e-05,2.206123372253476e-05,2.15668223739444e-05,Unknown
0.10099038500000024,4.250994299615043e-06,3.5610887956299564e-06,3.1991883614909765e-06,1.494425511017352e-05,2.2090508543994808e-05,2.1502041294642946e-05,Unknown
0.10150961500000033,4.215589813871043e-06,3.553306023607113e-06,3.213827163736121e-06,1.4936094952458316e-05,2.208938602137365e-05,2.1514882125230603e-05,Unknown
0.10202884599999962,4.165486696022894e-06,3.5480277150683767e-06,3.232624279764599e-06,1.4926812737805228e-05,2.205507487889177e-05,2.137105680205093e-05,Unknown
0.1025480769999998,4.139232595564145e-06,3.545850604491477e-06,3.251563259305739e-06,1.4920556181986616e-05,2.19606046124474e-05,2.108636267430088e-05,Unknown
0.10306730799999997,4.12816042463244e-06,3.544299079057106e-06,3.2651414791271097e-06,1.4919164581901388e-05,2.1823755557341316e-05,2.09138598504975e-05,Unknown
0.10358653800000006,4.112857794042569e-06,3.5421073390276844e-06,3.267667124932411e-06,1.4920083547727431e-05,2.1730630857551183e-05,2.0989160133250988e-05,Unknown
0.10410576900000024,4.091660548394632e-06,3.54016228255722e-06,3.2569263809984584e-06,1.4919920868169612e-05,2.172913214968309e-05,2.1200915638848475e-05,Unknown
0.10462499999999952,4.037803326289845e-06,3.541640780606081e-06,3.2371493394404176e-06,1.4921639128470908e-05,2.176809799855375e-05,2.13186530373098e-05,Unknown
0.1051442309999997,3.981862831746085e-06,3.548519458175353e-06,3.2201116696592087e-06,1.4927083221455776e-05,2.1788093696761798e-05,2.131585307189849e-05,Unknown
0.10566346199999987,3.988127098706694e-06,3.5579941808547318e-06,3.214964252288037e-06,1.4929193508952755e-05,2.1785561325655383e-05,2.1375623487830583e-05,Unknown
0.10618269199999997,4.020538583723585e-06,3.565239174324392e-06,3.2162728199566515e-06,1.4927432374573415e-05,2.177293820431876e-05,2.1482474099324603e-05,Unknown
0.10670192300000014,4.034751937249871e-06,3.5667538073784955e-06,3.2167898036160884e-06,1.492378811039487e-05,2.175472629137744e-05,2.145975083843811e-05,Unknown
0.10722115400000032,4.039738845233657e-06,3.562943381526104e-06,3.2173590508928517e-06,1.4917702160859104e-05,2.17423376801422e-05,2.1329829467024063e-05,Unknown
0.1077403849999996,4.045110723625572e-06,3.557976427459524e-06,3.2173483621558087e-06,1.492822085259838e-05,2.1742301715168704e-05,2.1245486149231403e-05,Unknown
0.1082596149999997,4.062660172068719e-06,3.5521206463199565e-06,3.2160377949951666e-06,1.4977887959823398e-05,2.1734193363847807e-05,2.123420858144924e-05,Unknown
0.10877884599999987,4.080682978350419e-06,3.543926352708836e-06,3.2154068127548443e-06,1.5067426787771722e-05,2.1695730665107863e-05,2.123721817771213e-05,Unknown
0.10929807700000005,4.077910788532372e-06,3.5410202449025545e-06,3.215415601625035e-06,1.5187641052270189e-05,2.1648359525029492e-05,2.1237475381742204e-05,Unknown
0.10981730800000022,4.066911161475431e-06,3.5449930956024124e-06,3.2154949535394035e-06,1.532797390484321e-05,2.162259047814841e-05,2.1238319637925627e-05,Unknown
0.11033653800000032,4.062000760713772e-06,3.5453658454613357e-06,3.216347655591271e-06,1.5467702023882375e-05,2.16096255301536e-05,2.124866592129065e-05,Unknown
0.1108557689999996,4.060407899533178e-06,3.546852964131974e-06,3.217202221882617e-06,1.5583579806212617e-05,2.158711046065705e-05,2.127308587864556e-05,Unknown
0.11137499999999978,4.0572788741004855e-06,3.5622273095756887e-06,3.21680292757748e-06,1.567226591618773e-05,2.1542760506076487e-05,2.1291022419731355e-05,Unknown
0.11189423099999996,4.047225203892113e-06,3.584645599453533e-06,3.216160495417416e-06,1.5745553601462458e-05,2.151317612374863e-05,2.1289931428504836e-05,Unknown
0.11241346200000013,4.040255063635815e-06,3.5952236794190305e-06,3.217855513397345e-06,1.5804569188187973e-05,2.1513175667103275e-05,2.128433408443788e-05,Unknown
0.11293269200000022,4.054901852653986e-06,3.585974266240324e-06,3.2239469948868424e-06,1.5828668145286454e-05,2.1502217052688792e-05,2.1293953290525055e-05,Unknown
0.11345192299999951,4.075119109589212e-06,3.568367812169227e-06,3.232877818076312e-06,1.5828497612116045e-05,2.1493306530805437e-05,2.132076907099131e-05,Unknown
0.11397115399999969,4.0735081828284205e-06,3.5554716285652773e-06,3.242367787346889e-06,1.5897323478339052e-05,2.149455781389261e-05,2.1346132703858517e-05,Unknown
0.11449038499999986,4.062678072137365e-06,3.5476679641533784e-06,3.2512013870007763e-06,1.612793890023083e-05,2.1479005843320665e-05,2.1350200736923937e-05,Unknown
0.11500961499999995,4.060279919597703e-06,3.543310544002791e-06,3.258728105690075e-06,1.6508763883943024e-05,2.1442264083986272e-05,2.1358178547876975e-05,Unknown
0.11552884600000013,4.059732928829686e-06,3.540947515003593e-06,3.2635233053154142e-06,1.6941651531508146e-05,2.137374969033458e-05,2.140644234873261e-05,Unknown
0.1160480770000003,4.053442911533752e-06,3.540121238900656e-06,3.2637107959842168e-06,1.731062295635381e-05,2.12423683983791e-05,2.1448760574000853e-05,Unknown
0.11656730799999959,4.039630135747584e-06,3.541799160766888e-06,3.2636076303184517e-06,1.7537402797314913e-05,2.107696965275541e-05,2.1447145385769768e-05,Unknown
0.11708653799999968,4.034591641719417e-06,3.541126535718497e-06,3.2652836411752487e-06,1.7621661767115268e-05,2.0993784619853878e-05,2.148124177269873e-05,Unknown
0.11760576899999986,4.046733446496982e-06,3.5386470876542856e-06,3.264930722318837e-06,1.7632020046905738e-05,2.0992682059379463e-05,2.159366280334411e-05,Unknown
0.11812500000000004,4.050841891781136e-06,3.5395107517966505e-06,3.266448319890409e-06,1.762946093637526e-05,2.0954075346191085e-05,2.1681571118743323e-05,Unknown
0.11864423100000021,4.0398835191755545e-06,3.5408693374888357e-06,3.2753496861118658e-06,1.7622985778811033e-05,2.088374281912966e-05,2.1681159835169573e-05,Unknown
0.1191634619999995,4.030620372607753e-06,3.542232241398405e-06,3.285174235665644e-06,1.761285375370606e-05,2.0848345734488528e-05,2.165970417302182e-05,Unknown
0.11968269199999959,4.029242057030974e-06,3.5461800353461228e-06,3.287605051234849e-06,1.7609404303581086e-05,2.0839958225179012e-05,2.165775352474993e-05,Unknown
0.12020192299999977,4.040509164647071e-06,3.550877212936687e-06,3.2833091536162284e-06,1.7609915246137126e-05,2.08357123681863e-05,2.1657646224059174e-05,Unknown
0.12072115399999994,4.0548878687475154e-06,3.553446412518699e-06,3.273155887004966e-06,1.761008222842934e-05,2.082922516517004e-05,2.1667651654872117e-05,Unknown
0.12124038500000012,4.050327347687965e-06,3.553038713980173e-06,3.2560100522623107e-06,1.7612142677514192e-05,2.082302437503117e-05,2.16888364857036e-05,Unknown
0.12175961500000021,4.034137052597391e-06,3.5521816624826803e-06,3.236785058516224e-06,1.7651581801546113e-05,2.0820630757095528e-05,2.170025210689771e-05,Unknown
0.1222788459999995,4.024752793326573e-06,3.558708116519708e-06,3.221761841365976e-06,1.7832948175132435e-05,2.081958302735656e-05,2.1701724856495835e-05,Unknown
0.12279807699999967,4.022027652635043e-06,3.5884537234520708e-06,3.221711927435749e-06,1.817398478077373e-05,2.0819612581395303e-05,2.170184752827929e-05,Unknown
0.12331730799999985,4.027836956902982e-06,3.651656513148713e-06,3.2475979416836827e-06,1.848012123246876e-05,2.082129435410841e-05,2.1703396949337623e-05,Unknown
0.12383653799999994,4.0463317628457695e-06,3.736867957570932e-06,3.283300972044045e-06,1.86001926944028e-05,2.08223860535892e-05,2.1706912042859616e-05,Unknown
0.12435576900000012,4.0742819894824334e-06,3.819834242498983e-06,3.303170594885769e-06,1.8608848610821457e-05,2.0820563369454237e-05,2.168589490194592e-05,Unknown
0.12487500000000029,4.102570627850513e-06,3.879334235888652e-06,3.3067450677787923e-06,1.861420666313058e-05,2.0814631044535387e-05,2.160888356088087e-05,Unknown
0.12539423099999958,4.1111066571351545e-06,3.908369254123138e-06,3.3066869910439504e-06,1.863362861050847e-05,2.0808127976825715e-05,2.1511011639459424e-05,Unknown
0.12591346199999975,4.0919288335205e-06,3.917021981339694e-06,3.307157109502477e-06,1.866569461451817e-05,2.081448241869497e-05,2.1466363812600493e-05,Unknown
0.12643269199999985,4.066857271756216e-06,3.919509024321831e-06,3.3079701798649234e-06,1.871817862203856e-05,2.084438469917006e-05,2.147027121739868e-05,Unknown
0.12695192300000002,4.046334790767747e-06,3.926112933111031e-06,3.3089564631862737e-06,1.8781362343452272e-05,2.088324276213258e-05,2.1435956275129755e-05,Unknown
0.1274711540000002,4.023625949391381e-06,3.944410954948776e-06,3.303703995591549e-06,1.8825022490659973e-05,2.0906561595103103e-05,2.1350297826676065e-05,Unknown
0.12799038499999948,4.008737932154864e-06,3.967258610993817e-06,3.2899903595254053e-06,1.883954795550595e-05,2.090978710508584e-05,2.1276790818422287e-05,Unknown
0.12850961499999958,4.00466379680552e-06,3.978707573370059e-06,3.2762023315333637e-06,1.8842243178340617e-05,2.090319392524631e-05,2.121920297221468e-05,Unknown
0.12902884599999975,4.001051841948553e-06,3.978131195727215e-06,3.270139327870082e-06,1.8844096963407163e-05,2.089823857327332e-05,2.1148497467906212e-05,Unknown
0.12954807699999993,4.001480244854434e-06,3.975266200571364e-06,3.2727476721832324e-06,1.8847494994752e-05,2.0897709901727087e-05,2.104063386327066e-05,Unknown
0.1300673080000001,3.995479216593758e-06,3.974634615824048e-06,3.278374872264805e-06,1.8851660402938843e-05,2.0898096379722185e-05,2.0898370626008666e-05,Unknown
0.1305865380000002,3.978384751588865e-06,3.97436231608695e-06,3.279834998024417e-06,1.885502735779899e-05,2.0899329754225645e-05,2.076527437177555e-05,Unknown
0.13110576899999948,3.976713160727026e-06,3.971982139794054e-06,3.282030243489136e-06,1.885990576040374e-05,2.0898861311763457e-05,2.0667432822544177e-05,Unknown
0.13162499999999966,3.985667612573678e-06,3.969558496972137e-06,3.292360581720539e-06,1.887171616903694e-05,2.0898496672739275e-05,2.0616251720822948e-05,Unknown
0.13214423099999983,3.986718591671149e-06,3.97001691556523e-06,3.291045885961419e-06,1.889844213730676e-05,2.0903506295043555e-05,2.0613797023056997e-05,Unknown
0.132663462,3.977160371433102e-06,3.973552593334739e-06,3.2667712167482223e-06,1.8947571417822205e-05,2.090811235400881e-05,2.0593581885194824e-05,Unknown
0.1331826920000001,3.941935602483613e-06,3.978162085904535e-06,3.245443572402875e-06,1.9016890964793543e-05,2.090831652519267e-05,2.0501450893504034e-05,Unknown
0.13370192300000028,3.891509477893806e-06,3.980666422916334e-06,3.236774857835143e-06,1.9091571109540573e-05,2.0894073994993337e-05,2.044067008842412e-05,Unknown
0.13422115399999957,3.8637718794161984e-06,3.980834906921815e-06,3.23107284655295e-06,1.91616323147372e-05,2.084233782166961e-05,2.04456812070252e-05,Unknown
0.13474038499999974,3.859990795086929e-06,3.982924662096701e-06,3.220405725472803e-06,1.9233098345247057e-05,2.075464843081273e-05,2.0423278229465943e-05,Unknown
0.13525961499999983,3.859995900537676e-06,3.990888906751911e-06,3.1875258031459286e-06,1.9309354028941357e-05,2.0665862166903825e-05,2.040543212168113e-05,Unknown
0.135778846,3.862596167924399e-06,4.00820628519892e-06,3.138716520451392e-06,1.9374840172133974e-05,2.0612545551088373e-05,2.0401521983750094e-05,Unknown
0.13629807700000018,3.869401172391626e-06,4.03752916661563e-06,3.1055771090009184e-06,1.940525866056637e-05,2.0600691974359085e-05,2.0342215740926025e-05,Unknown
0.13681730800000036,3.875101511454674e-06,4.067274980510195e-06,3.096602420255072e-06,1.9405114460948665e-05,2.0600154924975463e-05,2.0274666878017824e-05,Unknown
0.13733653799999956,3.876785794813359e-06,4.080624529379205e-06,3.09945471368113e-06,1.940791763069746e-05,2.057942651737717e-05,2.0257687408025453e-05,Unknown
0.13785576899999974,3.87543588664678e-06,4.080638137220035e-06,3.104586343990102e-06,1.941931947308604e-05,2.0535207025910743e-05,2.0262301157572445e-05,Unknown
0.13837499999999991,3.875281965433608e-06,4.078718512254234e-06,3.107384996116711e-06,1.942379059849914e-05,2.0483863325962287e-05,2.0266538796812263e-05,Unknown
0.1388942310000001,3.872831019296016e-06,4.08001605073397e-06,3.1076782279102883e-06,1.9422322616273195e-05,2.044130664310328e-05,2.0269215433835188e-05,Unknown
0.13941346200000027,3.859261515896307e-06,4.088973962415872e-06,3.1071649583863608e-06,1.9423358577373184e-05,2.041798064507251e-05,2.0266913967562926e-05,Unknown
0.13993269200000036,3.8412848941709495e-06,4.105283262404049e-06,3.10658932584378e-06,1.94280290137779e-05,2.0415406135353352e-05,2.026718901393249e-05,Unknown
0.14045192299999965,3.826092215475549e-06,4.119976208405982e-06,3.1069021629148e-06,1.9428876506823178e-05,2.040735947057369e-05,2.0286611899274416e-05,Unknown
0.14097115399999982,3.81729452072629e-06,4.126827895783795e-06,3.1077076156190736e-06,1.942981754659957e-05,2.034383346258747e-05,2.032601162509833e-05,Unknown
0.141490385,3.817359283328218e-06,4.12936084229178e-06,3.1079533739237478e-06,1.942983048975737e-05,2.0212512498421823e-05,2.034384629779052e-05,Unknown
0.1420096150000001,3.813248235685747e-06,4.131956796353736e-06,3.10794084839464e-06,1.947134329313504e-05,2.0103573021607764e-05,2.0330833804167156e-05,Unknown
0.14252884600000026,3.824208269161098e-06,4.1374464963935015e-06,3.107412857147943e-06,1.96881257835842e-05,2.009163702015165e-05,2.033909120140127e-05,Unknown
0.14304807699999955,3.879826764254802e-06,4.145407182115981e-06,3.1055712289806822e-06,2.004650097998587e-05,2.004915255260873e-05,2.035778531779018e-05,Unknown
0.14356730799999973,3.943839192175252e-06,4.1492909779978565e-06,3.102889835562824e-06,2.0301175201557558e-05,1.9859261182684625e-05,2.035503631007894e-05,Unknown
0.14408653799999982,3.976277322347837e-06,4.148027150901723e-06,3.10075663257635e-06,2.036960693272791e-05,1.9663871821281594e-05,2.0346629400800505e-05,Unknown
0.144605769,3.9841108860354e-06,4.142529263943423e-06,3.101358855964073e-06,2.0366078917348104e-05,1.9604383803603977e-05,2.033099862076439e-05,Unknown
0.14512500000000017,3.975618721733711e-06,4.128980400636738e-06,3.10629164506598e-06,2.0364563078815176e-05,1.961990135788241e-05,2.0310922831314427e-05,Unknown
0.14564423100000035,3.9539034210228495e-06,4.105451439397007e-06,3.10836571993888e-06,2.0359829575685943e-05,1.962557008171784e-05,2.0301717545586917e-05,Unknown
0.14616346199999963,3.935824753668132e-06,4.068665626545539e-06,3.0960901152750084e-06,2.032184265361265e-05,1.9628431931078942e-05,2.029407631849712e-05,Unknown
0.14668269199999973,3.929575254780446e-06,4.013173974809113e-06,3.079125010065253e-06,2.0232350907206784e-05,1.964492111836612e-05,2.0276068937246235e-05,Unknown
0.1472019229999999,3.927596722160559e-06,3.938132685979496e-06,3.075800133866879e-06,2.011143852808168e-05,1.9646422933612507e-05,2.0244923980912213e-05,Unknown
0.14772115400000008,3.92626017608293e-06,3.85257637937147e-06,3.0800186611503627e-06,1.999529836357388e-05,1.9624478206475876e-05,2.0194595083068627e-05,Unknown
0.14824038500000025,3.923601799799509e-06,3.7731656440969057e-06,3.0728736266202696e-06,1.9903732677996967e-05,1.95993275531541e-05,2.013904087493036e-05,Unknown
0.14875961500000034,3.921526004316008e-06,3.713888944916783e-06,3.060083853124145e-06,1.983807863645126e-05,1.9577030828369302e-05,2.0121443909041984e-05,Unknown
0.14927884599999963,3.92610855436814e-06,3.6796479794584896e-06,3.075565638780597e-06,1.979241983629117e-05,1.9562903061060264e-05,2.01171713239149e-05,Unknown
0.1497980769999998,3.931705456368857e-06,3.666662532613411e-06,3.121399178155225e-06,1.9760901109957052e-05,1.9559300076482465e-05,2.007501662199805e-05,Unknown
0.15031730799999998,3.9328413879071885e-06,3.664664921082213e-06,3.164901784001196e-06,1.9736964968256117e-05,1.956076744712372e-05,2.005391335531506e-05,Unknown
0.15083653800000008,3.932837216045344e-06,3.665284153502604e-06,3.1918952608166283e-06,1.9717864739303216e-05,1.9561353283622115e-05,2.005941025196589e-05,Unknown
0.15135576900000025,3.931695696222422e-06,3.6717056773362535e-06,3.2080572575751185e-06,1.9712818230309063e-05,1.9558284928970105e-05,2.005377854090403e-05,Unknown
0.15187499999999954,3.934177380206227e-06,3.686093285808025e-06,3.217968924644785e-06,1.972289796501478e-05,1.9554158242758872e-05,2.0054745253627712e-05,Unknown
0.1523942309999997,3.949077748678341e-06,3.6967203528150624e-06,3.2152587736102536e-06,1.970869723606073e-05,1.955005896464017e-05,2.0003135089651875e-05,Unknown
0.1529134619999999,3.965152031826061e-06,3.694237118197346e-06,3.203061731976758e-06,1.962627243441269e-05,1.954631822920912e-05,1.991946191816509e-05,Unknown
0.15343269199999998,3.969763786778429e-06,3.6824534669315904e-06,3.1985684681966096e-06,1.9481489718669363e-05,1.9542904914136625e-05,1.988580080791932e-05,Unknown
0.15395192300000016,3.971530517397325e-06,3.672259401358475e-06,3.1988256540307984e-06,1.92874189322814e-05,1.953818283728824e-05,1.9878384710885004e-05,Unknown
0.15447115400000033,3.984595520916802e-06,3.6690924286634985e-06,3.197836920676607e-06,1.9011450343673863e-05,1.953488396814532e-05,1.9859618552735485e-05,Unknown
0.15499038499999962,4.011760226261166e-06,3.6670531704518728e-06,3.2086553438768745e-06,1.8631590929794885e-05,1.9546886912452367e-05,1.9787454978140797e-05,Unknown
0.1555096149999997,4.037231842729749e-06,3.656291405273328e-06,3.229214072179287e-06,1.824781978465346e-05,1.9571234984356923e-05,1.969388000480532e-05,Unknown
0.1560288459999999,4.050677587029146e-06,3.626521796366473e-06,3.2407952918723155e-06,1.802190944599854e-05,1.9582562415917484e-05,1.9678638763874253e-05,Unknown
0.15654807700000006,4.059471712435824e-06,3.583316008635402e-06,3.241004773725848e-06,1.7969908946745738e-05,1.957912920132966e-05,1.976579464633036e-05,Unknown
0.15706730800000024,4.066334368201681e-06,3.5479029233766307e-06,3.240502630545753e-06,1.7987527152230487e-05,1.957742148153612e-05,1.991115225958702e-05,Unknown
0.15758653800000033,4.083804033319482e-06,3.528341389635518e-06,3.2416597129825605e-06,1.8013168265311022e-05,1.95801513626244e-05,1.9977813455184023e-05,Unknown
0.15810576899999962,4.124841545798192e-06,3.5188876191189336e-06,3.2411379849252686e-06,1.803885117752645e-05,1.958261172510798e-05,1.9886983159226488e-05,Unknown
0.1586249999999998,4.162616545146095e-06,3.515240060090059e-06,3.242998943855013e-06,1.807427199675816e-05,1.958450912564983e-05,1.978774939544452e-05,Unknown
0.15914423099999997,4.1745143752914985e-06,3.516921267436661e-06,3.2496388658475264e-06,1.8136824569800423e-05,1.9589331736753605e-05,1.9766402493674115e-05,Unknown
0.15966346200000014,4.174432881411755e-06,3.528109024531036e-06,3.253129680531717e-06,1.822950895475041e-05,1.959979890319654e-05,1.9766495470307062e-05,Unknown
0.16018269200000024,4.1737956062224445e-06,3.550119420414279e-06,3.25312099552072e-06,1.832303108300444e-05,1.961372173037208e-05,1.979682504724906e-05,Unknown
0.16070192299999952,4.173799911603068e-06,3.568158535828704e-06,3.255240143408143e-06,1.8374494682188496e-05,1.9622487256990628e-05,1.979465012410219e-05,Unknown
0.1612211539999997,4.17055088347421e-06,3.568508159699582e-06,3.2562133568823318e-06,1.8381207844909685e-05,1.9615044299109554e-05,1.973359726749632e-05,Unknown
0.16174038499999988,4.156966645117211e-06,3.559517993041542e-06,3.2547308187863483e-06,1.837876152157761e-05,1.959017222564168e-05,1.981773681161143e-05,Unknown
0.16225961499999997,4.14298495707316e-06,3.554084609651472e-06,3.251706203498204e-06,1.83828143917196e-05,1.9559922795601275e-05,2.00541854325608e-05,Unknown
0.16277884600000014,4.138958663172388e-06,3.553017481058513e-06,3.247121734418774e-06,1.840805352808141e-05,1.953523777081165e-05,2.0216431941179863e-05,Unknown
0.16329807700000032,4.13888547665239e-06,3.553228572784077e-06,3.2421669418298584e-06,1.8474692501712444e-05,1.951854332373597e-05,2.026180080433414e-05,Unknown
0.1638173079999996,4.138405283804195e-06,3.5535557837783377e-06,3.2344880006706737e-06,1.8541004711138595e-05,1.950903177453364e-05,2.0269343398756017e-05,Unknown
0.1643365379999997,4.133662416585834e-06,3.553385543557239e-06,3.226058689085966e-06,1.855868354698876e-05,1.950385059253666e-05,2.0272850989634305e-05,Unknown
0.16485576899999987,4.130917059034372e-06,3.5558473979379782e-06,3.22393552951956e-06,1.8558701714256533e-05,1.949494352451177e-05,2.027692929995016e-05,Unknown
0.16537500000000005,4.138790923563188e-06,3.566234890345029e-06,3.2242869318974063e-06,1.8582834656843192e-05,1.948343347501669e-05,2.027824383233e-05,Unknown
0.16589423100000023,4.13504337147375e-06,3.5826601117662504e-06,3.2108852321661377e-06,1.862532786523221e-05,1.948055482786305e-05,2.0266827581928905e-05,Unknown
0.1664134619999995,4.113426637992308e-06,3.5949459852650247e-06,3.1756288983756622e-06,1.8672760042171035e-05,1.947543947109028e-05,2.023644629196089e-05,Unknown
0.1669326919999996,4.098749076902822e-06,3.597551528093386e-06,3.132026102589594e-06,1.872570912374778e-05,1.945480002847446e-05,2.020873632135877e-05,Unknown
0.16745192299999978,4.090066425811314e-06,3.5957510731403985e-06,3.1008368233195727e-06,1.877897758891243e-05,1.9429989653055845e-05,2.0228013249123742e-05,Unknown
0.16797115399999996,4.080266127461638e-06,3.59508859994262e-06,3.087234649048271e-06,1.881035828821616e-05,1.941669972544958e-05,2.0279534814823097e-05,Unknown
0.16849038500000013,4.0801154237921535e-06,3.595662131094841e-06,3.0820237500347845e-06,1.8810662811394472e-05,1.9419994179427783e-05,2.029305569973115e-05,Unknown
0.16900961500000022,4.082939765874874e-06,3.5961547736032257e-06,3.0785164243554206e-06,1.879920076538205e-05,1.941391410139083e-05,2.0276102081806485e-05,Unknown
0.1695288459999995,4.083256119657766e-06,3.5965968689781444e-06,3.0746135569833877e-06,1.8789371992369023e-05,1.951557637517956e-05,2.027224540080645e-05,Unknown
0.1700480769999997,4.091657353938608e-06,3.597040985548436e-06,3.0697647974122665e-06,1.8792998463440978e-05,2.007259503077651e-05,2.0272225793172505e-05,Unknown
0.17056730799999986,4.089830474372322e-06,3.5969978789531016e-06,3.066096092715659e-06,1.8856240281525044e-05,2.1029147445941427e-05,2.027899954743208e-05,Unknown
0.17108653799999995,4.069313539104436e-06,3.5965577343609222e-06,3.065890079343561e-06,1.902291778994956e-05,2.1745616346793467e-05,2.0288822210334827e-05,Unknown
0.17160576900000013,4.056725826447068e-06,3.5955241985018903e-06,3.063855579290059e-06,1.9244280790840856e-05,2.192307384614141e-05,2.028806616633745e-05,Unknown
0.1721250000000003,4.054760028643595e-06,3.5949103410675045e-06,3.0587775897370887e-06,1.9390756165511844e-05,2.189899404896981e-05,2.034041245090551e-05,Unknown
0.1726442309999996,4.056641622615689e-06,3.596156748328462e-06,3.0586153667824173e-06,1.940788089022772e-05,2.198147041663488e-05,2.047123383085346e-05,Unknown
0.17316346199999977,4.0624711746183335e-06,3.5956785822968323e-06,3.058813164186906e-06,1.9377481190364096e-05,2.213874428047122e-05,2.0576609487933533e-05,Unknown
0.17368269199999986,4.0575198836045096e-06,3.5887089357858814e-06,3.0548408835232043e-06,1.9369584199432584e-05,2.2274195283205643e-05,2.060180465188132e-05,Unknown
0.17420192300000004,4.044530351055199e-06,3.575812570910596e-06,3.056924253208952e-06,1.936647129570436e-05,2.2376063103355847e-05,2.058915948550005e-05,Unknown
0.1747211540000002,4.040001485201121e-06,3.5604998563153385e-06,3.0666855633155266e-06,1.9350736587954777e-05,2.246685689525324e-05,2.059753978974079e-05,Unknown
0.1752403849999995,4.039885878718442e-06,3.546227832576674e-06,3.075935721867301e-06,1.933465280781036e-05,2.2569848036866336e-05,2.0757333278378736e-05,Unknown
0.1757596149999996,4.039306334583985e-06,3.534363603166807e-06,3.083569092133608e-06,1.9327074914805997e-05,2.2706028145957437e-05,2.1121396131749764e-05,Unknown
0.17627884599999977,4.0285352047401e-06,3.5230050389959623e-06,3.090668341663805e-06,1.93317668038359e-05,2.288477800342124e-05,2.1464107662779672e-05,Unknown
0.17679807699999994,3.997220226219954e-06,3.5092224009688004e-06,3.0946317894720637e-06,1.934171731670676e-05,2.308974023457077e-05,2.1574513692703853e-05,Unknown
0.17731730800000012,3.96928088590301e-06,3.4942351737454614e-06,3.0912783873880758e-06,1.9338025054101565e-05,2.328410803497295e-05,2.156392937453377e-05,Unknown
0.1778365380000002,3.965319471427563e-06,3.48599262905516e-06,3.080857925531019e-06,1.9345976691763763e-05,2.3431466234491183e-05,2.1707693804253145e-05,Unknown
0.1783557689999995,3.968173474951304e-06,3.4854761366019115e-06,3.0705695212428814e-06,1.944754934029377e-05,2.3489086639601267e-05,2.2091638744769773e-05,Unknown
0.17887499999999967,3.9657078655195845e-06,3.484225030938629e-06,3.0634787050037457e-06,1.9630719802828185e-05,2.342461088622676e-05,2.2505734378630965e-05,Unknown
0.17939423099999985,3.968031237035022e-06,3.481755386513898e-06,3.060587679050433e-06,1.975533945793216e-05,2.33035366379311e-05,2.27372021703794e-05,Unknown
0.17991346200000002,3.989633797756158e-06,3.4808634940702867e-06,3.073596770367426e-06,1.9771719783350077e-05,2.325619676282409e-05,2.2804763812536397e-05,Unknown
0.18043269200000012,4.0345518328862345e-06,3.4802603703145224e-06,3.105573833271525e-06,1.974230794908712e-05,2.3322006190547195e-05,2.2816110487684644e-05,Unknown
0.1809519230000003,4.076037740607164e-06,3.478276292287919e-06,3.131715709421928e-06,1.9698274388677148e-05,2.3461714499200085e-05,2.2818413811251467e-05,Unknown
0.18147115399999958,4.091085026162159e-06,3.475058247369696e-06,3.1319323325920434e-06,1.9659744220048092e-05,2.362673831742327e-05,2.283152204914918e-05,Unknown
0.18199038499999975,4.08608457628423e-06,3.4737151245237155e-06,3.11483043823319e-06,1.964438874468081e-05,2.3750528772724423e-05,2.286567861014e-05,Unknown
0.18250961499999985,4.075649743919927e-06,3.476597011836972e-06,3.1031750461236737e-06,1.963892248758749e-05,2.3783708048193528e-05,2.2914168085157973e-05,Unknown
0.18302884600000002,4.093267898936005e-06,3.4831581802373063e-06,3.116968869669195e-06,1.9634346668032004e-05,2.3679413077276044e-05,2.29646502315954e-05,Unknown
0.1835480770000002,4.146152721898636e-06,3.490477283424089e-06,3.1570547949184327e-06,1.963229840519856e-05,2.345177848614505e-05,2.300494674451024e-05,Unknown
0.18406730799999949,4.181135636118938e-06,3.4963044450022173e-06,3.207968502530125e-06,1.963242612755268e-05,2.327755930477617e-05,2.302211589673708e-05,Unknown
0.18458653799999958,4.171529660170796e-06,3.501154247478158e-06,3.2601965237763564e-06,1.9630352976486412e-05,2.3250025756165517e-05,2.3018522589299907e-05,Unknown
0.18510576899999975,4.138211777136665e-06,3.5068449569851197e-06,3.3162205931112376e-06,1.9623496019293952e-05,2.3237871799850167e-05,2.3020624475223963e-05,Unknown
0.18562499999999993,4.118959059444267e-06,3.513196282118704e-06,3.379293127001521e-06,1.961625020352633e-05,2.31628816147466e-05,2.301168301776792e-05,Unknown
0.1861442310000001,4.151339586250091e-06,3.516538471684568e-06,3.4452654799666337e-06,1.9609642386877505e-05,2.3082280327988223e-05,2.2911954601561303e-05,Unknown
0.18666346200000028,4.205459963566571e-06,3.516673653230465e-06,3.506712222335978e-06,1.9598216990492124e-05,2.303701796591877e-05,2.26936062047505e-05,Unknown
0.18718269199999948,4.226221882216815e-06,3.5154188797221018e-06,3.564134288022121e-06,1.9578717464244422e-05,2.3018054380957594e-05,2.2468193556053403e-05,Unknown
0.18770192299999966,4.223086580748912e-06,3.512460526385497e-06,3.6285864087036935e-06,1.955257078874751e-05,2.301441299197948e-05,2.2371002535020225e-05,Unknown
0.18822115399999984,4.2129193052384525e-06,3.509986874564764e-06,3.71057325211954e-06,1.9520338193993548e-05,2.301753844915352e-05,2.238236558524819e-05,Unknown
0.188740385,4.197320759041894e-06,3.5089750993436758e-06,3.800528472085909e-06,1.9479989350936036e-05,2.3006330385763387e-05,2.233530387163204e-05,Unknown
0.1892596150000001,4.199352508954933e-06,3.511337729166392e-06,3.869204876491591e-06,1.943046669152544e-05,2.2979350826110565e-05,2.203386041532943e-05,Unknown
0.18977884600000028,4.2177519557189175e-06,3.517293155708279e-06,3.901621850186029e-06,1.9378114284366296e-05,2.2964201225314717e-05,2.1444612676720643e-05,Unknown
0.19029807699999957,4.227218657028546e-06,3.5214478610512173e-06,3.908169306907131e-06,1.9334523546647965e-05,2.2963331659098565e-05,2.089616137814352e-05,Unknown
0.19081730799999974,4.229431819561664e-06,3.5240880479374323e-06,3.900901668900142e-06,1.930198819597425e-05,2.2963208755185074e-05,2.0731750001475176e-05,Unknown
0.19133653799999983,4.23089669483198e-06,3.5313184888467e-06,3.883225297303655e-06,1.9273038870532695e-05,2.2960213693376464e-05,2.0772805871649052e-05,Unknown
0.191855769,4.229985365864887e-06,3.5422508462079336e-06,3.8604780275981e-06,1.924657895640926e-05,2.292082020200351e-05,2.0784212151480587e-05,Unknown
0.19237500000000018,4.240002640050473e-06,3.549534712486143e-06,3.844662063086589e-06,1.9234313097133505e-05,2.282231707276273e-05,2.077990707962122e-05,Unknown
0.19289423100000036,4.263540080095514e-06,3.5539506196599707e-06,3.83918336178972e-06,1.9238957374528542e-05,2.2711377435349505e-05,2.073228999901222e-05,Unknown
0.19341346199999965,4.27297988047801e-06,3.5611283238837053e-06,3.837578143573465e-06,1.9222423895081064e-05,2.2639232922868423e-05,2.070546806141513e-05,Unknown
0.19393269199999974,4.258458778560818e-06,3.5713992302706564e-06,3.836499890894095e-06,1.912014619030116e-05,2.2609041492243475e-05,2.0706503536426332e-05,Unknown
0.19445192299999992,4.23951369158702e-06,3.5803879814885555e-06,3.835572025059359e-06,1.8916556005742176e-05,2.259899195510149e-05,2.061147706361906e-05,Unknown
0.1949711540000001,4.236116438845293e-06,3.580293980127608e-06,3.841029794037537e-06,1.8692854284386463e-05,2.2591571203105456e-05,2.049547708000656e-05,Unknown
0.19549038500000027,4.2711138762344185e-06,3.5649325223032327e-06,3.86510175867853e-06,1.854696778758211e-05,2.258977515992071e-05,2.046842388580111e-05,Unknown
0.19600961500000036,4.33419345524984e-06,3.5362562284935563e-06,3.909264219952154e-06,1.848389890807945e-05,2.257978464434365e-05,2.049224437310487e-05,Unknown
0.19652884599999965,4.3740607431489175e-06,3.5053810829941995e-06,3.959543899417718e-06,1.844809316108936e-05,2.2474490158810403e-05,2.051236788916216e-05,Unknown
0.19704807699999982,4.376094401069967e-06,3.4850525040912466e-06,4.000609151680347e-06,1.840955693110985e-05,2.2201421813852778e-05,2.0500799286927e-05,Unknown
0.197567308,4.362722588955718e-06,3.478483060961781e-06,4.030985307091548e-06,1.837307535346862e-05,2.1867593316978318e-05,2.044518713535808e-05,Unknown
0.1980865380000001,4.365726521809158e-06,3.478858039964008e-06,4.063327688116651e-06,1.835141384112657e-05,2.166615146162302e-05,2.0356712878877057e-05,Unknown
0.19860576900000027,4.425795902996455e-06,3.482353705006621e-06,4.101348628978455e-06,1.8343191144975702e-05,2.162755245273081e-05,2.026828171199561e-05,Unknown
0.19912499999999955,4.527589842692067e-06,3.48796264599219e-06,4.138072906063762e-06,1.832437516949195e-05,2.1628306523262413e-05,2.0228664029278825e-05,Unknown
0.19964423099999973,4.613081753177383e-06,3.487576601374826e-06,4.175506823051673e-06,1.8267884660875737e-05,2.15470903649944e-05,2.025865141419564e-05,Unknown
0.2001634619999999,4.659777991913311e-06,3.475878670091193e-06,4.211403673716776e-06,1.8181408914249837e-05,2.1341304883499345e-05,2.031451655821414e-05,Unknown
0.200682692,4.680645939935247e-06,3.4579528864902747e-06,4.2326368677231314e-06,1.8107109742551456e-05,2.109472525860589e-05,2.0331627917542468e-05,Unknown
0.20120192300000017,4.714260566041801e-06,3.444147326789962e-06,4.237308059134779e-06,1.8072675548129717e-05,2.0966346907794885e-05,2.0250357457820015e-05,Unknown
0.20172115400000035,4.785751040270486e-06,3.440946343020578e-06,4.236571799735646e-06,1.8073215606102045e-05,2.096429795178437e-05,2.0010917266909228e-05,Unknown
0.20224038499999963,4.872186755817386e-06,3.4422466272574613e-06,4.237543933938931e-06,1.810766919546424e-05,2.0921901528277288e-05,1.9678463855630413e-05,Unknown
0.20275961499999973,4.9498496060451386e-06,3.4430506736641223e-06,4.238728126041051e-06,1.81964043568992e-05,2.079843755417769e-05,1.9460906509831057e-05,Unknown
0.2032788459999999,5.015698772414674e-06,3.449736081944982e-06,4.238244798532048e-06,1.833363238156507e-05,2.072617593937818e-05,1.9431155346637945e-05,Unknown
0.20379807700000008,5.074164086899805e-06,3.460182383970532e-06,4.237856700186696e-06,1.8466971121759453e-05,2.07246087241026e-05,1.952349897368184e-05,Unknown
0.20431730800000025,5.138821431317848e-06,3.468764241548721e-06,4.238680514831736e-06,1.856269412928247e-05,2.070350207205937e-05,1.97085700137852e-05,Unknown
0.20483653800000035,5.21091075284736e-06,3.480595316844495e-06,4.238982994376007e-06,1.863493013831562e-05,2.06878516787683e-05,1.993429388652993e-05,Unknown
0.20535576899999963,5.280852702572155e-06,3.4932262315055747e-06,4.238026625375812e-06,1.87099313149e-05,2.067517472531344e-05,2.0107532744029835e-05,Unknown
0.2058749999999998,5.3545469860228285e-06,3.500968864909759e-06,4.236792233581824e-06,1.879748142274979e-05,2.0484415448455208e-05,2.0164735379224155e-05,Unknown
0.20639423099999998,5.431977476036262e-06,3.505600318914558e-06,4.238416516868239e-06,1.888211390101862e-05,2.0055667481893346e-05,2.0130159266312607e-05,Unknown
0.20691346200000016,5.4984539339971285e-06,3.504453691457652e-06,4.246817816406586e-06,1.893910912585171e-05,1.9599450977416703e-05,2.013326437702908e-05,Unknown
0.20743269200000025,5.551478287367108e-06,3.4957103191849197e-06,4.260446405489628e-06,1.8952936701550896e-05,1.9295729363175407e-05,2.024475426415912e-05,Unknown
0.20795192299999954,5.601738980209669e-06,3.4873104248266963e-06,4.274240236859825e-06,1.8932535933096443e-05,1.9132856642872417e-05,2.035084079114274e-05,Unknown
0.20847115399999971,5.657967618448927e-06,3.4863546380373603e-06,4.280511383770416e-06,1.8945584385798578e-05,1.905671384755107e-05,2.0322851556145086e-05,Unknown
0.2089903849999999,5.717654144658081e-06,3.487871396880619e-06,4.2803686373353736e-06,1.908708212637714e-05,1.9049116331971583e-05,2.019396419491884e-05,Unknown
0.20950961499999998,5.769084548273026e-06,3.480563758463773e-06,4.2878393681500505e-06,1.9331694919773176e-05,1.8990649855786777e-05,2.008265646640508e-05,Unknown
0.21002884600000016,5.810149668673839e-06,3.4606226091966354e-06,4.301620423218482e-06,1.952716451421087e-05,1.8583339659419576e-05,2.002517132765408e-05,Unknown
0.21054807700000033,5.846442006678136e-06,3.4455285442692392e-06,4.310763232595523e-06,1.960115633621743e-05,1.7813928225485848e-05,2.0003759995139112e-05,Unknown
0.21106730799999962,5.872103811282623e-06,3.4499036816295504e-06,4.3153693594880745e-06,1.961064506692086e-05,1.717530354892034e-05,2.001269217304482e-05,Unknown
0.2115865379999997,5.88519195437493e-06,3.4580268830841912e-06,4.317896303548433e-06,1.9607120887738395e-05,1.6927733651119316e-05,2.0026907519601945e-05,Unknown
0.2121057689999999,5.888492027505678e-06,3.4591087420640783e-06,4.319185305461035e-06,1.959878076935591e-05,1.6871639193385787e-05,2.0010732048387813e-05,Unknown
0.21262500000000006,5.89190052560118e-06,3.4587423550897944e-06,4.318779801665632e-06,1.958514924490928e-05,1.684584069154203e-05,1.995386146208703e-05,Unknown
0.21314423100000024,5.94532022241447e-06,3.4594676407728456e-06,4.31841700204804e-06,1.956683299721698e-05,1.6809656025714476e-05,1.988575857804183e-05,Unknown
0.21366346199999953,6.091520925718097e-06,3.468680199141931e-06,4.320586539837863e-06,1.9552689611777796e-05,1.6788598983399375e-05,1.9845906863843016e-05,Unknown
0.21418269199999962,6.302970002847169e-06,3.50007804660054e-06,4.3227228173389294e-06,1.9550010496135225e-05,1.678899835900348e-05,1.983750696783579e-05,Unknown
0.2147019229999998,6.523166623589245e-06,3.55699330109457e-06,4.323273998198155e-06,1.95517052042224e-05,1.677380214226893e-05,1.983780673768031e-05,Unknown
0.21522115399999997,6.728251781761562e-06,3.635463049496097e-06,4.323148754321401e-06,1.955116917573229e-05,1.675304388044532e-05,1.9831391499308748e-05,Unknown
0.21574038500000015,6.941926953705548e-06,3.742505814698054e-06,4.320253093206023e-06,1.955057297305948e-05,1.674729569373544e-05,1.9822756210570303e-05,Unknown
0.21625961500000024,7.203360640151083e-06,3.882523015227978e-06,4.311674468292868e-06,1.95506847857362e-05,1.6753110108048852e-05,1.98242935110634e-05,Unknown
0.21677884599999953,7.510183030220581e-06,4.039492727402404e-06,4.3001226132610914e-06,1.955705067612993e-05,1.6767094446493436e-05,1.978727872947907e-05,Unknown
0.2172980769999997,7.813278213016306e-06,4.18543523489027e-06,4.291341520106211e-06,1.961008258509869e-05,1.678193310653927e-05,1.9637122911078395e-05,Unknown
0.21781730799999988,8.071915153416893e-06,4.295595030614539e-06,4.287653986715215e-06,1.978064783168189e-05,1.67869254417534e-05,1.9469599045773093e-05,Unknown
0.21833653799999997,8.279183109545105e-06,4.362806869423785e-06,4.289327440901015e-06,2.003972821274559e-05,1.6783164552421065e-05,1.9413866818576687e-05,Unknown
0.21885576900000014,8.439265286655751e-06,4.397044134080953e-06,4.299794750019423e-06,2.0223002533874236e-05,1.677748244006333e-05,1.9412804031845968e-05,Unknown
0.21937500000000032,8.553597472767852e-06,4.4105102051465655e-06,4.31758303047989e-06,2.026710394575539e-05,1.6767985823577638e-05,1.941346099495591e-05,Unknown
0.2198942309999996,8.631191714371191e-06,4.412911244998281e-06,4.3308930892926034e-06,2.0264467959793035e-05,1.6747309468371943e-05,1.9419741958415552e-05,Unknown
0.22041346199999978,8.689302290302152e-06,4.412841930730531e-06,4.335424960652314e-06,2.0269591077822052e-05,1.671361304475021e-05,1.943150228689256e-05,Unknown
0.22093269199999988,8.73742829680135e-06,4.415103259950162e-06,4.336299235161069e-06,2.0275750274412152e-05,1.6681516233815398e-05,1.9464962271693177e-05,Unknown
0.22145192300000005,8.76997567092533e-06,4.417938616402467e-06,4.336170217930261e-06,2.0285971999275287e-05,1.6672377382842118e-05,1.9506017378824124e-05,Unknown
0.22197115400000023,8.783356475020701e-06,4.4184303462617405e-06,4.334233365201923e-06,2.0316208448061106e-05,1.6677720659738007e-05,1.951081328807132e-05,Unknown
0.2224903849999995,8.787910405451882e-06,4.418850420271006e-06,4.330917117236887e-06,2.0369411172077256e-05,1.6673693961607896e-05,1.9438722644956217e-05,Unknown
0.2230096149999996,8.788299972051193e-06,4.4272468793872135e-06,4.3306453113526e-06,2.0421820233365e-05,1.6665853909580188e-05,1.928227674482704e-05,Unknown
0.22352884599999978,8.785197776286576e-06,4.44771371947443e-06,4.3313308792127936e-06,2.0458105980342696e-05,1.6665832781323248e-05,1.911607237207797e-05,Unknown
0.22404807699999996,8.784362655598256e-06,4.464201479105144e-06,4.332247571302489e-06,2.0487801584708443e-05,1.6665981989804983e-05,1.9045785798727636e-05,Unknown
0.22456730800000013,8.784247425876321e-06,4.465951009704939e-06,4.342331268896757e-06,2.0519786249321588e-05,1.664752169740716e-05,1.9077252927007335e-05,Unknown
0.22508653800000022,8.786159458040817e-06,4.470303355054975e-06,4.357960768344897e-06,2.053116610273401e-05,1.6591378443317022e-05,1.9141873047886093e-05,Unknown
0.2256057689999995,8.792613135185093e-06,4.488443843883953e-06,4.366326238607941e-06,2.0534968830685924e-05,1.651834031830216e-05,1.918741771567843e-05,Unknown
0.2261249999999997,8.795167728993314e-06,4.505583037305353e-06,4.365144140828592e-06,2.0744977053944292e-05,1.647971069365347e-05,1.9191550003776985e-05,Unknown
0.22664423099999986,8.794136668485005e-06,4.508107166390511e-06,4.359522706481594e-06,2.13121692589252e-05,1.6477084894156614e-05,1.917470231381925e-05,Unknown
0.22716346200000004,8.794143221472155e-06,4.505084533644574e-06,4.357933410458923e-06,2.188799806213104e-05,1.6473765637425146e-05,1.919294170783913e-05,Unknown
0.22768269200000013,8.790970028468443e-06,4.514677839127941e-06,4.364999881120082e-06,2.210617603414658e-05,1.6471057257419826e-05,1.9290102662867977e-05,Unknown
0.2282019230000003,8.789250061576341e-06,4.542461690898764e-06,4.374522355490096e-06,2.2113211965584248e-05,1.6488197900292605e-05,1.9377731042071287e-05,Unknown
0.2287211539999996,8.790586022833198e-06,4.581691192152273e-06,4.380947368960762e-06,2.2128868369822703e-05,1.6506791252621198e-05,1.924683296481568e-05,Unknown
0.22924038499999977,8.788045664338155e-06,4.623783838581498e-06,4.385438132016064e-06,2.2137040112399603e-05,1.649462654017964e-05,1.901452456378863e-05,Unknown
0.22975961499999986,8.793441191698533e-06,4.662662470737293e-06,4.391121438851858e-06,2.214057227883365e-05,1.6466130693538485e-05,1.912220730346112e-05,Unknown
0.23027884600000004,8.808524429831414e-06,4.6958333865022505e-06,4.404352769627584e-06,2.216274880224044e-05,1.6468627768148394e-05,1.940924236694396e-05,Unknown
0.2307980770000002,8.809895881168476e-06,4.726830677340003e-06,4.432477725287651e-06,2.21709481336128e-05,1.6499245503030112e-05,1.938060702322481e-05,Unknown
0.2313173079999995,8.79850434451347e-06,4.763953694736571e-06,4.470724418169863e-06,2.2173611134117924e-05,1.6519531810954715e-05,1.9351008155917695e-05,Unknown
0.2318365379999996,8.79161010902414e-06,4.811133797831253e-06,4.499808627258263e-06,2.2209160190956156e-05,1.6529337045285287e-05,1.9783047466443103e-05,Unknown
0.23235576899999977,8.792256700504055e-06,4.859782390544777e-06,4.50867295902102e-06,2.2283538542956845e-05,1.6542419091728794e-05,2.026651830047333e-05,Unknown
0.23287499999999994,8.79791249031762e-06,4.8959018253653416e-06,4.508580080981453e-06,2.23767259430303e-05,1.6553217286770213e-05,2.035131754038596e-05,Unknown
0.23339423100000012,8.803511857180395e-06,4.91712825680039e-06,4.512203934972626e-06,2.2474488257552172e-05,1.6552984014087898e-05,2.027790622459284e-05,Unknown
0.2339134620000003,8.80640735125773e-06,4.93208795562754e-06,4.517011224296822e-06,2.2573762151384032e-05,1.6563140611383143e-05,2.047391707745322e-05,Unknown
0.2344326919999995,8.810245796126444e-06,4.944629569576997e-06,4.518428698351841e-06,2.2660377009004856e-05,1.6629957829852223e-05,2.098913973100478e-05,Unknown
0.23495192299999967,8.819371336722296e-06,4.95758361640788e-06,4.518343159823614e-06,2.2708065860427145e-05,1.673166992383357e-05,2.155607486419897e-05,Unknown
0.23547115399999985,8.840823070000923e-06,4.9743050649287645e-06,4.518632733127113e-06,2.2704850396097106e-05,1.6791533492190483e-05,2.191078776649817e-05,Unknown
0.23599038500000002,8.884244026962813e-06,4.984611188077883e-06,4.51969508701117e-06,2.266615300072014e-05,1.6804786604186674e-05,2.1995349713225272e-05,Unknown
0.23650961500000012,8.945715481327156e-06,4.97895738410692e-06,4.523060360490769e-06,2.2615457073982832e-05,1.68083683713499e-05,2.197094162478252e-05,Unknown
0.2370288460000003,9.006919311364645e-06,4.965158400612066e-06,4.5326862277973375e-06,2.2563799722258675e-05,1.682289282764031e-05,2.2017257892447743e-05,Unknown
0.23754807699999958,9.055262532879656e-06,4.95343572148241e-06,4.553419285274013e-06,2.251908513753067e-05,1.6869744931026655e-05,2.210565270079651e-05,Unknown
0.23806730799999976,9.092753286449612e-06,4.944962573122167e-06,4.582361585030196e-06,2.2506678232385487e-05,1.692909542405592e-05,2.212696228904671e-05,Unknown
0.23858653799999985,9.136504617632272e-06,4.9380311931941314e-06,4.605949622466343e-06,2.257088601535072e-05,1.6962554440008154e-05,2.210098853132484e-05,Unknown
0.23910576900000002,9.19384426466738e-06,4.935349584790038e-06,4.614076451688744e-06,2.2726604234178607e-05,1.6971972655899695e-05,2.208519442528489e-05,Unknown
0.2396250000000002,9.241275966566612e-06,4.93753727007231e-06,4.611027692956413e-06,2.2861663138762344e-05,1.6972671469440355e-05,2.209213656050885e-05,Unknown
0.2401442309999995,9.26240540940075e-06,4.938394052211209e-06,4.605484783707106e-06,2.278285208685948e-05,1.696895623594437e-05,2.2094628430597574e-05,Unknown
0.24066346199999966,9.268705685495414e-06,4.938428774851878e-06,4.6016486204837175e-06,2.248739262430242e-05,1.696223372987053e-05,2.206659877075512e-05,Unknown
0.24118269199999975,9.27284246433802e-06,4.940388334102333e-06,4.6030712881312936e-06,2.2225457351112892e-05,1.6959828369620506e-05,2.206478972711553e-05,Unknown
0.24170192299999993,9.281466682704996e-06,4.940353608737616e-06,4.611492942389752e-06,2.215231172137569e-05,1.6961615185815042e-05,2.2112775602258445e-05,Unknown
0.2422211540000001,9.298870103270668e-06,4.938497419833693e-06,4.625642013496014e-06,2.217053411221149e-05,1.6960584203954988e-05,2.2092670508064176e-05,Unknown
0.24274038500000028,9.323490176316632e-06,4.9373988961601305e-06,4.638577724823158e-06,2.217862181004559e-05,1.6965392273947602e-05,2.196923522031941e-05,Unknown
0.24325961499999949,9.350308314872272e-06,4.936476908798762e-06,4.638149489910744e-06,2.217864265653806e-05,1.6977224880019456e-05,2.190123390095941e-05,Unknown
0.24377884599999966,9.374444934235031e-06,4.935068345642188e-06,4.627081549497709e-06,2.2179152786375025e-05,1.69803205195706e-05,2.200352446556332e-05,Unknown
0.24429807699999984,9.39450637727383e-06,4.932570505192247e-06,4.627162036409755e-06,2.21807936765657e-05,1.697751835412181e-05,2.2211562023630212e-05,Unknown
0.244817308,9.41079649839128e-06,4.929085427184759e-06,4.645951278548148e-06,2.2197440472451432e-05,1.6983311341428482e-05,2.236796857604361e-05,Unknown
0.2453365380000001,9.421623637329197e-06,4.925080368542478e-06,4.661965407220515e-06,2.2234780721161213e-05,1.6999914724340263e-05,2.238954500223365e-05,Unknown
0.24585576900000028,9.433617638696838e-06,4.920385592040203e-06,4.662211194357093e-06,2.228269389723498e-05,1.7027056812477054e-05,2.2361755496933617e-05,Unknown
0.24637499999999957,9.463158696204848e-06,4.918386876721854e-06,4.659062244346221e-06,2.232555112811015e-05,1.707009857426041e-05,2.238227631813887e-05,Unknown
0.24689423099999974,9.509587357191992e-06,4.924714167019455e-06,4.658207961548454e-06,2.2310873005940875e-05,1.7123904891162173e-05,2.2439896489964e-05,Unknown
0.24741346199999992,9.54946779821543e-06,4.928039142868056e-06,4.656631848602484e-06,2.217310229669721e-05,1.715900872420183e-05,2.250027276226836e-05,Unknown
0.247932692,9.56797938758181e-06,4.900157506486381e-06,4.65057855136766e-06,2.206387433271504e-05,1.71597323571391e-05,2.2554167992311584e-05,Unknown
0.24845192300000019,9.56864786935898e-06,4.83292904948355e-06,4.631057850844725e-06,2.2273295456984547e-05,1.7160002429039976e-05,2.257519915971054e-05,Unknown
0.24897115400000036,9.557443402987236e-06,4.7488546187366034e-06,4.605855674447896e-06,2.268744866270113e-05,1.7179071322130506e-05,2.2562496356453733e-05,Unknown
0.24949038499999965,9.538305381911393e-06,4.676587126206414e-06,4.593836690830384e-06,2.29335197547584e-05,1.718904634730673e-05,2.264856907715606e-05,Unknown
0.25000961499999974,9.518978036503332e-06,4.638691864326588e-06,4.604764377081605e-06,2.296474504304494e-05,1.7186331424759183e-05,2.2855876468737588e-05,Unknown
0.2505288459999999,9.515129789701149e-06,4.653727485418126e-06,4.651916284657549e-06,2.2943128936263796e-05,1.718819648272073e-05,2.297039183251541e-05,Unknown
0.2510480770000001,9.533346426738651e-06,4.7284736304020204e-06,4.74927094689462e-06,2.2925932418674275e-05,1.7181203962378884e-05,2.2953688438775254e-05,Unknown
0.25156730800000027,9.554557106359997e-06,4.8399712533327874e-06,4.904305764729966e-06,2.290251072226289e-05,1.7146637493294242e-05,2.29659096400522e-05,Unknown
0.25208653800000036,9.566030663865975e-06,4.944911537605535e-06,5.136072918594966e-06,2.2885454441922463e-05,1.7100307025704433e-05,2.301245801906747e-05,Unknown
0.25260576899999965,9.575992057142726e-06,5.017279568578797e-06,5.470966368350142e-06,2.2915381572146577e-05,1.707488850822869e-05,2.30052817274334e-05,Unknown
0.2531249999999998,9.587514980308426e-06,5.06633960595899e-06,5.889951690550235e-06,2.300287153673108e-05,1.7073866847132148e-05,2.296984133526197e-05,Unknown
0.253644231,9.603064794562529e-06,5.110858473750579e-06,6.3033585551215655e-06,2.310960750279469e-05,1.707831474162994e-05,2.298990023378921e-05,Unknown
0.2541634620000002,9.623600483312658e-06,5.148690762309859e-06,6.622944885155527e-06,2.320344056928989e-05,1.7081578721752233e-05,2.308130951302491e-05,Unknown
0.25468269200000027,9.634904859266216e-06,5.170566186918018e-06,6.833340243705682e-06,2.3277753425952145e-05,1.708595729787642e-05,2.317363379805833e-05,Unknown
0.25520192299999955,9.635330807325326e-06,5.180724095927385e-06,6.973354389377351e-06,2.333468625717245e-05,1.7089301529697463e-05,2.320594210344674e-05,Unknown
0.25572115399999973,9.635548150539131e-06,5.1869351038883404e-06,7.085759252448424e-06,2.337205298734323e-05,1.708875164551332e-05,2.319789594038487e-05,Unknown
0.2562403849999999,9.63255193781414e-06,5.192146102355308e-06,7.195090204837022e-06,2.338552073441057e-05,1.7088858057455515e-05,2.318976452165215e-05,Unknown
0.256759615,9.63364878778357e-06,5.196255212820153e-06,7.303391487462724e-06,2.3378469764283437e-05,1.7090024289625908e-05,2.319090502757429e-05,Unknown
0.25727884600000017,9.645602647687057e-06,5.197776332225235e-06,7.390930834390746e-06,2.335723881064116e-05,1.7084985847112703e-05,2.3195891176228387e-05,Unknown
0.25779807700000035,9.652127842891906e-06,5.195372432861615e-06,7.434839394971484e-06,2.333057570692151e-05,1.7078946599694176e-05,2.3197833217586424e-05,Unknown
0.25831730799999963,9.650747868105696e-06,5.190420068574931e-06,7.441325334422259e-06,2.332588076267485e-05,1.7080442861422893e-05,2.31975994788152e-05,Unknown
0.2588365379999997,9.650182244622783e-06,5.187058399486053e-06,7.442236629540152e-06,2.338036743784419e-05,1.708085225307312e-05,2.319851495246313e-05,Unknown
0.2593557689999999,9.65017682354995e-06,5.184757505468985e-06,7.454127931050808e-06,2.347701572012849e-05,1.7070035345491007e-05,2.3198059892885485e-05,Unknown
0.2598750000000001,9.64998689529252e-06,5.180015349903463e-06,7.4720795380949245e-06,2.3534477388533955e-05,1.705589840972724e-05,2.31963789964443e-05,Unknown
0.26039423100000025,9.650353755041244e-06,5.177731137016489e-06,7.494544019555321e-06,2.35130401831021e-05,1.70505938098532e-05,2.319556207637611e-05,Unknown
0.26091346199999954,9.651691760178998e-06,5.1810755687757625e-06,7.523073317818295e-06,2.3459750832878825e-05,1.7051498513424903e-05,2.3195835292548725e-05,Unknown
0.26143269199999963,9.650363920931077e-06,5.176066479044001e-06,7.552192271207625e-06,2.343472870634073e-05,1.705212526254761e-05,2.319731363513229e-05,Unknown
0.2619519229999998,9.646045513568483e-06,5.157703503864485e-06,7.575894382692134e-06,2.344491221615603e-05,1.7052611607389498e-05,2.319803103760495e-05,Unknown
0.262471154,9.64329640998725e-06,5.144586010206976e-06,7.5988254983957236e-06,2.3460256424022887e-05,1.7052730457345264e-05,2.319605393450638e-05,Unknown
0.26299038500000016,9.643730512538269e-06,5.141381575567867e-06,7.642236752045486e-06,2.347376223736693e-05,1.7052865545133185e-05,2.3192660082182104e-05,Unknown
0.26350961500000025,9.644450073529708e-06,5.140948823929885e-06,7.751800976506156e-06,2.349491409512796e-05,1.705265103393042e-05,2.319146447604886e-05,Unknown
0.26402884599999954,9.644187835735348e-06,5.155657497122112e-06,7.974051861059755e-06,2.3519336246434257e-05,1.705104273048984e-05,2.3194442433154612e-05,Unknown
0.2645480769999997,9.654867488468984e-06,5.198234313025711e-06,8.289830688463206e-06,2.353859289076952e-05,1.7053925265660698e-05,2.320016897138818e-05,Unknown
0.2650673079999999,9.68588491189563e-06,5.266612664154153e-06,8.611361431528621e-06,2.3547991156038998e-05,1.7065080430485626e-05,2.320485173167092e-05,Unknown
0.265586538,9.734442918839069e-06,5.356368690075383e-06,8.865097312378816e-06,2.354976814438908e-05,1.707687000742821e-05,2.31971707792276e-05,Unknown
0.26610576900000016,9.799622017752385e-06,5.4545624886384135e-06,9.034346185475524e-06,2.3551479622882404e-05,1.7080962559128404e-05,2.3172533532478364e-05,Unknown
0.26662500000000033,9.887638271102137e-06,5.532274156957433e-06,9.13166539756062e-06,2.357035225976779e-05,1.7081076746806594e-05,2.31599496279142e-05,Unknown
0.2671442309999996,1.000639391653157e-05,5.568025752932473e-06,9.1741406784033e-06,2.355849205516066e-05,1.7083321251939562e-05,2.3164437225232907e-05,Unknown
0.2676634619999998,1.0128016258428237e-05,5.570536836093372e-06,9.184130048437538e-06,2.3381568945541065e-05,1.7087551850810523e-05,2.314990932513235e-05,Unknown
0.2681826919999999,1.0198092615217512e-05,5.563873350354644e-06,9.1843900587335e-06,2.3080735823896828e-05,1.7091431854960625e-05,2.3133958251591876e-05,Unknown
0.26870192300000006,1.0212192781812974e-05,5.560951122204082e-06,9.18492209241911e-06,2.2914947071662973e-05,1.7088255608578303e-05,2.313712096512788e-05,Unknown
0.26922115400000024,1.020905897558374e-05,5.561934216919345e-06,9.185547529419582e-06,2.299941240072897e-05,1.711312336570881e-05,2.3140534031674187e-05,Unknown
0.2697403849999995,1.020829252365752e-05,5.563483955537189e-06,9.185412636990563e-06,2.3219158663986452e-05,1.7277486669917674e-05,2.315038683387736e-05,Unknown
0.2702596149999996,1.0209514398854595e-05,5.563227082581808e-06,9.184676557357884e-06,2.342338606145008e-05,1.7649260437679906e-05,2.316325293172201e-05,Unknown
0.2707788459999998,1.0210173392411717e-05,5.567919720150339e-06,9.184428870913682e-06,2.3530573525251545e-05,1.8120470866784995e-05,2.315977040721459e-05,Unknown
0.27129807699999997,1.0208323818946327e-05,5.581809036808922e-06,9.184937257157282e-06,2.3564383424029428e-05,1.8490564233778797e-05,2.3147736304400077e-05,Unknown
0.27181730800000015,1.0206293443521882e-05,5.595414054054954e-06,9.183170223354325e-06,2.358262991058228e-05,1.867006250898976e-05,2.314113665245555e-05,Unknown
0.27233653800000024,1.0206676633383732e-05,5.603170367198294e-06,9.178099881242707e-06,2.3622913724927333e-05,1.871952668353671e-05,2.313950617528068e-05,Unknown
0.2728557689999995,1.0208974034438708e-05,5.6081287571103775e-06,9.17415267129754e-06,2.3720202909460088e-05,1.871192156897167e-05,2.3139342992457017e-05,Unknown
0.2733749999999997,1.0211446325777482e-05,5.612934701009404e-06,9.174579957832705e-06,2.385205835642016e-05,1.868703546429468e-05,2.3139598116574182e-05,Unknown
0.2738942309999999,1.0212193594331334e-05,5.617250876685698e-06,9.174717514080696e-06,2.3936314394799663e-05,1.86784824057621e-05,2.3139870693976147e-05,Unknown
0.27441346200000005,1.0212233667865064e-05,5.620118775689555e-06,9.166322731017009e-06,2.3944086098360087e-05,1.86894671436928e-05,2.3139953990524625e-05,Unknown
0.27493269200000015,1.021754712070142e-05,5.622141593087158e-06,9.15237883685633e-06,2.3951345782660997e-05,1.870709829127212e-05,2.31402778834464e-05,Unknown
0.2754519230000003,1.0227508082172176e-05,5.625409722317656e-06,9.14492944835943e-06,2.4052331137750368e-05,1.872508542168015e-05,2.3140261567099698e-05,Unknown
0.2759711539999996,1.0231949906856016e-05,5.629640665235338e-06,9.148314109533312e-06,2.425510467053403e-05,1.874006093104597e-05,2.313884299463257e-05,Unknown
0.2764903849999998,1.0231562199936067e-05,5.627367120741744e-06,9.161345736140146e-06,2.4513553351658403e-05,1.8751983938412e-05,2.3138903951542177e-05,Unknown
0.2770096149999999,1.0233464595620435e-05,5.615426286237234e-06,9.189607253691375e-06,2.482271034600717e-05,1.876646087941839e-05,2.314122609026918e-05,Unknown
0.27752884600000005,1.023319508407549e-05,5.605416713890453e-06,9.247350274391486e-06,2.5218628274460192e-05,1.8802360911530974e-05,2.3142050678200083e-05,Unknown
0.2780480770000002,1.0229350355739735e-05,5.607622779523831e-06,9.344552845619404e-06,2.5687252761671592e-05,1.887453929816752e-05,2.3141728284730104e-05,Unknown
0.2785673079999995,1.0226983582326765e-05,5.619404393314377e-06,9.474266988640272e-06,2.6118508132275527e-05,1.8950956239473343e-05,2.3142233753090665e-05,Unknown
0.2790865379999996,1.022824464784456e-05,5.633628004125428e-06,9.621786767458058e-06,2.642451062453691e-05,1.898869194325243e-05,2.314331964450625e-05,Unknown
0.2796057689999998,1.0233683180949656e-05,5.647176956661883e-06,9.777660484205148e-06,2.6633687784032544e-05,1.899362442152691e-05,2.314449637797533e-05,Unknown
0.28012499999999996,1.02372116723068e-05,5.661617065595362e-06,9.934777516975098e-06,2.6817246503036734e-05,1.8977802838848595e-05,2.3144665071891877e-05,Unknown
0.28064423100000013,1.0234382301897415e-05,5.677979136292688e-06,1.0081343196138132e-05,2.700270009451024e-05,1.897955772400552e-05,2.3140120947466352e-05,Unknown
0.2811634620000003,1.0230732362458e-05,5.694605359758291e-06,1.0204116633785908e-05,2.7160183560504952e-05,1.9103669119760508e-05,2.311529920459409e-05,Unknown
0.2816826919999995,1.0229829776373871e-05,5.710295314155703e-06,1.0294922548346423e-05,2.7252758308337766e-05,1.9359039828041027e-05,2.3036882048080345e-05,Unknown
0.2822019229999997,1.023072449666869e-05,5.727666309647972e-06,1.0352059902801285e-05,2.728382442462756e-05,1.9563031077206545e-05,2.2909942253342825e-05,Unknown
0.28272115399999986,1.0230184142729866e-05,5.749155072684875e-06,1.0381790192081904e-05,2.7281251930214583e-05,1.9596000617377087e-05,2.2828784988243145e-05,Unknown
0.28324038500000004,1.0224837856741282e-05,5.768256337557397e-06,1.0394772774614614e-05,2.726464190716277e-05,1.962458235289072e-05,2.28250428400603e-05,Unknown
0.28375961500000013,1.0223495998013735e-05,5.775460010905687e-06,1.0397519577916292e-05,2.7238367333877856e-05,1.984017559310592e-05,2.280813845106574e-05,Unknown
0.2842788460000003,1.0238428385100983e-05,5.773457186058779e-06,1.03948796737871e-05,2.719929427329097e-05,2.01356949738096e-05,2.2783977317434404e-05,Unknown
0.2847980769999996,1.0269159121867088e-05,5.77264681053424e-06,1.039499243270685e-05,2.714911554674677e-05,2.0306392419720025e-05,2.2785483399177728e-05,Unknown
0.28531730799999977,1.0312022044575513e-05,5.781700365428399e-06,1.0406309529193395e-05,2.7108349336429784e-05,2.0336718813788795e-05,2.2733213106082105e-05,Unknown
0.28583653799999986,1.036687774984171e-05,5.810227175782446e-06,1.0436135881847993e-05,2.7106635409808927e-05,2.032605169262989e-05,2.2674542043093905e-05,Unknown
0.28635576900000004,1.043250231437088e-05,5.860048723522721e-06,1.0484546309819414e-05,2.714248711085305e-05,2.0322204569604853e-05,2.267706662822558e-05,Unknown
0.2868750000000002,1.0500879503996097e-05,5.916108560386567e-06,1.0541806942324514e-05,2.718379353921216e-05,2.0322225416425055e-05,2.2581951692540705e-05,Unknown
0.2873942309999995,1.055102432650426e-05,5.9616014572094055e-06,1.0604984659909771e-05,2.721312846234186e-05,2.0341460119586777e-05,2.236774231542913e-05,Unknown
0.2879134619999997,1.0570618085417504e-05,5.992175411733393e-06,1.0687456444552585e-05,2.722048094656334e-05,2.0398200498073937e-05,2.2222334439856724e-05,Unknown
0.28843269199999977,1.0574075894519878e-05,6.011620934574676e-06,1.0811641789920355e-05,2.719657395518986e-05,2.0458474528347107e-05,2.218379273669333e-05,Unknown
0.28895192299999994,1.0575793703427715e-05,6.02374152162797e-06,1.09882451981344e-05,2.717028839545108e-05,2.047501559599846e-05,2.217975160273015e-05,Unknown
0.2894711540000001,1.0582696726271196e-05,6.030445017235905e-06,1.118979263751992e-05,2.717124558157768e-05,2.046925826964521e-05,2.2178755121480658e-05,Unknown
0.2899903850000003,1.0595333791254866e-05,6.03337920806271e-06,1.1363881708960535e-05,2.7178286424786307e-05,2.049051147182969e-05,2.217716435616397e-05,Unknown
0.2905096149999995,1.0600054684041842e-05,6.0348151817939e-06,1.147818816145568e-05,2.7167184512340515e-05,2.0522180934687444e-05,2.2176638341356928e-05,Unknown
0.2910288459999997,1.0599033806463372e-05,6.037997360370968e-06,1.1537634081391715e-05,2.714821270349897e-05,2.052566698796822e-05,2.2177175877424672e-05,Unknown
0.29154807699999985,1.060436586896591e-05,6.043476161613011e-06,1.156675483383466e-05,2.7137799906838e-05,2.051957356501668e-05,2.2178073741519378e-05,Unknown
0.292067308,1.060727474509216e-05,6.046564210274039e-06,1.1590869964957196e-05,2.7136857580842357e-05,2.056039285734658e-05,2.217227312560501e-05,Unknown
0.2925865380000001,1.0605452584753983e-05,6.04638404684016e-06,1.164355519323748e-05,2.714147299727164e-05,2.076641690440673e-05,2.213472161134249e-05,Unknown
0.2931057690000003,1.0605480058932211e-05,6.046770227345107e-06,1.1793655701738384e-05,2.7161163720558936e-05,2.1254398126741888e-05,2.2075770001056857e-05,Unknown
0.2936249999999996,1.060405316691246e-05,6.047336333840154e-06,1.2111354540591851e-05,2.7206137121198687e-05,2.1881088259925785e-05,2.204975841088181e-05,Unknown
0.29414423099999976,1.0607392472687643e-05,6.04668534858208e-06,1.2568355918643584e-05,2.727199868911072e-05,2.2328246455079e-05,2.20497772114881e-05,Unknown
0.29466346199999993,1.0619816321743618e-05,6.045807610039255e-06,1.3046779494525273e-05,2.734954044767724e-05,2.237551760528131e-05,2.204498193324504e-05,Unknown
0.295182692,1.0631828685363254e-05,6.045756141441467e-06,1.345474671239176e-05,2.7416744985935327e-05,2.187564506915515e-05,2.2044952312435823e-05,Unknown
0.2957019230000002,1.0642257261901136e-05,6.048384040237269e-06,1.3763943806760837e-05,2.7433075843713376e-05,2.097746278671748e-05,2.203648146952965e-05,Unknown
0.2962211539999995,1.065326199423654e-05,6.055365195908923e-06,1.3967701194412226e-05,2.7377501128550676e-05,2.032685326600157e-05,2.202279459314473e-05,Unknown
0.29674038499999966,1.066158255421748e-05,6.065588901385084e-06,1.4068879686257096e-05,2.7308905300716533e-05,2.0331664271273545e-05,2.202283687378257e-05,Unknown
0.29725961499999976,1.06654450635608e-05,6.075262073636348e-06,1.4100953677825416e-05,2.7353309161832555e-05,2.0669764232919852e-05,2.197343818440995e-05,Unknown
0.29777884599999993,1.066496336136452e-05,6.081024444165554e-06,1.4108056523611734e-05,2.7570232470806916e-05,2.0933265542046445e-05,2.1850812375549493e-05,Unknown
0.2982980770000001,1.0661607881306511e-05,6.08315929459106e-06,1.41111640171751e-05,2.789504647392689e-05,2.1022908169328497e-05,2.1759090000645784e-05,Unknown
0.2988173080000003,1.06584225533856e-05,6.082680450990783e-06,1.4113222866073471e-05,2.824451167706604e-05,2.0993036518196172e-05,2.174053423547334e-05,Unknown
0.2993365379999995,1.0657437105350036e-05,6.080812391981374e-06,1.4112399270952665e-05,2.8542037114843688e-05,2.0913956447859373e-05,2.174175272933999e-05,Unknown
0.29985576899999966,1.0657429725930516e-05,6.080371072126487e-06,1.4121422980567653e-05,2.868406852271653e-05,2.0820856283061317e-05,2.172069729229264e-05,Unknown
0.30037499999999984,1.065784703863251e-05,6.0802908076450624e-06,1.4159001927784515e-05,2.868802220813491e-05,2.070892883803055e-05,2.1570006364279345e-05,Unknown
0.300894231,1.0659118222740888e-05,6.080004385527789e-06,1.4213719419783734e-05,2.8753452044189872e-05,2.055850718886603e-05,2.1227372612639164e-05,Unknown
0.3014134620000002,1.0658944270596482e-05,6.080120974462382e-06,1.4261219220898632e-05,2.8967398010139504e-05,2.035843111755167e-05,2.090469582837558e-05,Unknown
0.3019326920000003,1.0658493471202811e-05,6.080600630933841e-06,1.4296316397327116e-05,2.9183526382186823e-05,2.0124820952790915e-05,2.081742523789584e-05,Unknown
0.30245192299999957,1.0658481188545956e-05,6.084819970055121e-06,1.432561959571802e-05,2.9287022496280157e-05,1.989729819273703e-05,2.082820695426159e-05,Unknown
0.30297115399999974,1.0657178420805152e-05,6.0895046846111e-06,1.4351473340665715e-05,2.928508840995457e-05,1.97069302030672e-05,2.065675099511402e-05,Unknown
0.3034903849999999,1.065752671318387e-05,6.090577731898287e-06,1.4368904649181196e-05,2.918937237526747e-05,1.9564493000210304e-05,2.0242003936549725e-05,Unknown
0.304009615,1.0657506789822472e-05,6.0906330578359365e-06,1.4374638298191712e-05,2.9040235452680597e-05,1.948012211538448e-05,1.9790829951923564e-05,Unknown
0.3045288460000002,1.0655733284730302e-05,6.092349636699785e-06,1.4374382531390715e-05,2.8948021245029175e-05,1.945944968124986e-05,1.9536222309384e-05,Unknown
0.30504807700000036,1.0652036206441512e-05,6.105434117823369e-06,1.4378011180618274e-05,2.8975716009021627e-05,1.9457688310595325e-05,1.9493884199132265e-05,Unknown
0.30556730799999965,1.0638832748430912e-05,6.133673361183434e-06,1.4393007248305843e-05,2.909883021223856e-05,1.937875488784465e-05,1.9534116262939824e-05,Unknown
0.30608653799999974,1.0623348964414594e-05,6.158948100319263e-06,1.442297080935486e-05,2.929233046821426e-05,1.9179843741272525e-05,1.957305805375637e-05,Unknown
0.3066057689999999,1.0616887263245391e-05,6.167136151491774e-06,1.446547751276992e-05,2.954875318579327e-05,1.893596157014019e-05,1.958453459418176e-05,Unknown
0.3071250000000001,1.0615461187723892e-05,6.166453134254202e-06,1.4511695641618237e-05,2.985283859044414e-05,1.8747424132650416e-05,1.956004896510509e-05,Unknown
0.30764423100000027,1.0619964910133471e-05,6.1695696202382014e-06,1.4549758061272863e-05,3.0144080191909213e-05,1.864077167296785e-05,1.9512312984645304e-05,Unknown
0.30816346199999956,1.0629194935186968e-05,6.180539168704259e-06,1.4567697028629835e-05,3.0324738131485116e-05,1.859048431997263e-05,1.9459813447437265e-05,Unknown
0.30868269199999965,1.0634784720983657e-05,6.20042019999128e-06,1.456322933811795e-05,3.037396572298939e-05,1.8572270031034023e-05,1.941703479103349e-05,Unknown
0.3092019229999998,1.063921857448022e-05,6.227208134944198e-06,1.4551960575898912e-05,3.037386660151826e-05,1.8574209829366995e-05,1.939877535485617e-05,Unknown
0.309721154,1.0643612774524596e-05,6.248605698567072e-06,1.455126947766981e-05,3.0401275513761544e-05,1.8588039756674504e-05,1.9398697161898973e-05,Unknown
0.3102403850000002,1.0644231523105688e-05,6.252943568277808e-06,1.4564567007138928e-05,3.0465827523043674e-05,1.8604530963814382e-05,1.9389610794178958e-05,Unknown
0.31075961500000027,1.063890930855778e-05,6.249161958741844e-06,1.4592955512062178e-05,3.053780935754348e-05,1.861061718391718e-05,1.937948855571811e-05,Unknown
0.31127884599999955,1.0621074013481417e-05,6.250127100771352e-06,1.4651194072074187e-05,3.058967756985603e-05,1.859471634241199e-05,1.938564765006288e-05,Unknown
0.31179807699999973,1.0599059402510273e-05,6.252035409884262e-06,1.4765837820771942e-05,3.060923097643864e-05,1.856194760863903e-05,1.9390350586022004e-05,Unknown
0.3123173079999999,1.059096457087853e-05,6.252029770212545e-06,1.4955374954534244e-05,3.059890231402513e-05,1.853193350083072e-05,1.9383216340392084e-05,Unknown
0.312836538,1.0595293884307738e-05,6.253529555224798e-06,1.5219433696404442e-05,3.058598041651224e-05,1.8516764225487144e-05,1.936594412559365e-05,Unknown
0.3133557690000002,1.0608933362822378e-05,6.256254744738268e-06,1.5554201848807163e-05,3.063606885612148e-05,1.851272663999353e-05,1.934584051171061e-05,Unknown
0.31387500000000035,1.0634231876401804e-05,6.259956983971694e-06,1.59582667503151e-05,3.080436526663916e-05,1.851374286334453e-05,1.9340535012518484e-05,Unknown
0.31439423099999964,1.0659221234338436e-05,6.264274131626832e-06,1.6404664680059647e-05,3.102100819476773e-05,1.8516572482990836e-05,1.933811276671544e-05,Unknown
0.3149134619999998,1.067285689500986e-05,6.268103617946928e-06,1.682794157819247e-05,3.113499983864579e-05,1.8518922602446875e-05,1.9287927986182936e-05,Unknown
0.3154326919999999,1.0680306141489544e-05,6.26948912974461e-06,1.717610842191882e-05,3.113712438367468e-05,1.8520718743381237e-05,1.917564712087898e-05,Unknown
0.3159519230000001,1.0690460726234984e-05,6.267852629208597e-06,1.7460388219483408e-05,3.1126241021516364e-05,1.8523353852835263e-05,1.9058644838755973e-05,Unknown
0.31647115400000025,1.0707291070926963e-05,6.265042330124828e-06,1.7736147153351473e-05,3.111548338840337e-05,1.8529096449802868e-05,1.899409622437143e-05,Unknown
0.31699038499999954,1.072640279741229e-05,6.270008748597699e-06,1.8055275031646372e-05,3.115241551743485e-05,1.853931954238253e-05,1.898042883900153e-05,Unknown
0.31750961499999963,1.0733607800374131e-05,6.307562623563394e-06,1.8420380307985844e-05,3.134880021937458e-05,1.8554103202641693e-05,1.8980675486316883e-05,Unknown
0.3180288459999998,1.0725637560720374e-05,6.376108696203081e-06,1.8767964955669065e-05,3.1633147311582177e-05,1.857242107953692e-05,1.897178862224973e-05,Unknown
0.318548077,1.0720438147278628e-05,6.430823446530047e-06,1.90234061404428e-05,3.1836176411039095e-05,1.858979702477929e-05,1.8959817054666586e-05,Unknown
0.31906730800000016,1.07243570633589e-05,6.449438595864261e-06,1.9170116701381744e-05,3.192737152390354e-05,1.8596938471126297e-05,1.895387620081482e-05,Unknown
0.31958653800000025,1.0727975070961576e-05,6.449400763808166e-06,1.924356135821905e-05,3.196385946149837e-05,1.859213372611662e-05,1.8950880257448567e-05,Unknown
0.32010576899999954,1.0726776341735703e-05,6.447571684878707e-06,1.928034892685547e-05,3.1977621688660007e-05,1.858716157993609e-05,1.894383781751199e-05,Unknown
0.3206249999999997,1.0714011971614083e-05,6.447957057205201e-06,1.92957464439986e-05,3.197162855478391e-05,1.8586726912735196e-05,1.892211567723322e-05,Unknown
0.3211442309999999,1.069361046515359e-05,6.44933881396713e-06,1.929406511755358e-05,3.196671959886996e-05,1.8587352391386382e-05,1.8887232313805167e-05,Unknown
0.32166346200000007,1.068398256540002e-05,6.449726244183146e-06,1.9283614467500663e-05,3.201177386134362e-05,1.858850873458511e-05,1.885787742440879e-05,Unknown
0.32218269200000016,1.068421494634544e-05,6.449720191339219e-06,1.927598956730092e-05,3.213591142293642e-05,1.858777866257396e-05,1.884172201152263e-05,Unknown
0.32270192300000033,1.0683915483588434e-05,6.451786572213844e-06,1.927487874761535e-05,3.2330604313057044e-05,1.858613936692356e-05,1.8833856268100635e-05,Unknown
0.3232211539999996,1.067888096677919e-05,6.4582395115446914e-06,1.9278538262228887e-05,3.257584995470509e-05,1.8588288954316677e-05,1.8831763513624533e-05,Unknown
0.3237403849999998,1.0654129676986024e-05,6.468752130436054e-06,1.929146854905544e-05,3.286280821590438e-05,1.8589564011011175e-05,1.883116704943583e-05,Unknown
0.3242596149999999,1.0611025470512424e-05,6.478794314921309e-06,1.933247283145193e-05,3.3194324116966353e-05,1.8585359326849243e-05,1.881001768182598e-05,Unknown
0.32477884600000007,1.0577610200473851e-05,6.4840181200255945e-06,1.9430116271606044e-05,3.354467325053164e-05,1.8584333720603296e-05,1.8751963230524023e-05,Unknown
0.32529807700000024,1.0563181597993469e-05,6.485232083363139e-06,1.958945496176259e-05,3.383394401532584e-05,1.8589106775749725e-05,1.868873006336753e-05,Unknown
0.32581730799999953,1.0554670952090773e-05,6.48532171942881e-06,1.977350374377985e-05,3.399584434332699e-05,1.85892324876284e-05,1.866403966807928e-05,Unknown
0.3263365379999996,1.0538642626872222e-05,6.485250233773521e-06,1.994132708859221e-05,3.404872457426224e-05,1.8583380652094024e-05,1.867106925376797e-05,Unknown
0.3268557689999998,1.050724069539674e-05,6.485360711374799e-06,2.008334346366016e-05,3.405099127205081e-05,1.857961685328242e-05,1.8673508694502173e-05,Unknown
0.32737499999999997,1.0465583298700269e-05,6.484377208091017e-06,2.021157295298623e-05,3.4030368183329464e-05,1.8579982636720717e-05,1.8697875682668244e-05,Unknown
0.32789423100000015,1.042702899355112e-05,6.480972843608692e-06,2.033625439611674e-05,3.3996074950067214e-05,1.858118228897749e-05,1.8848302834238744e-05,Unknown
0.3284134620000003,1.040228376503284e-05,6.476001823748639e-06,2.0456500387699163e-05,3.4013086089932066e-05,1.8581303584124877e-05,1.913192915835357e-05,Unknown
0.3289326919999995,1.039449581298536e-05,6.47455499744609e-06,2.0569341611494496e-05,3.418893346613001e-05,1.858126675039959e-05,1.938576127164372e-05,Unknown
0.3294519229999997,1.0387593293395734e-05,6.481786694159274e-06,2.068148045572644e-05,3.448772335834803e-05,1.8581638433648105e-05,1.9486208369967662e-05,Unknown
0.3299711539999999,1.0360573489815596e-05,6.4934965423919485e-06,2.080614952077224e-05,3.472009530056663e-05,1.8581580439061324e-05,1.944682782919869e-05,Unknown
0.33049038500000005,1.0316697442899988e-05,6.501560042817437e-06,2.0948488695679945e-05,3.4788201739792867e-05,1.8580615486792505e-05,1.9335093164604795e-05,Unknown
0.33100961500000015,1.026982260603822e-05,6.505087399114452e-06,2.10981791890506e-05,3.475289584045879e-05,1.857909339768197e-05,1.9262614249908183e-05,Unknown
0.3315288460000003,1.0228309175315144e-05,6.507714730637633e-06,2.1245520195531677e-05,3.470049165641292e-05,1.8578990672193023e-05,1.9382647663319983e-05,Unknown
0.3320480769999996,1.019696606057425e-05,6.511872772456839e-06,2.14038228474428e-05,3.4671943322235145e-05,1.8581461704590745e-05,1.9764927149764907e-05,Unknown
0.3325673079999998,1.017097073780361e-05,6.518275067097657e-06,2.1609414521102904e-05,3.468016321351384e-05,1.858687165359013e-05,2.0336222179054695e-05,Unknown
0.3330865379999999,1.0143318081281825e-05,6.5257320276374985e-06,2.188922053406108e-05,3.472254810346465e-05,1.8594148645906187e-05,2.0954268386513117e-05,Unknown
0.33360576900000005,1.0112324380947553e-05,6.534088404888044e-06,2.2212786214497355e-05,3.47641337844287e-05,1.8600633504529083e-05,2.1490055313839357e-05,Unknown
0.3341250000000002,1.0077218110747611e-05,6.546678024556502e-06,2.2500721574389373e-05,3.4753613524136454e-05,1.8607402553657888e-05,2.189576710510805e-05,Unknown
0.3346442309999995,1.0042301303654986e-05,6.565352521679903e-06,2.2695778857498243e-05,3.470155443275386e-05,1.8613784974402858e-05,2.216469172008337e-05,Unknown
0.3351634619999997,1.0015204834798049e-05,6.588169796455497e-06,2.2795984144929668e-05,3.4680599372139614e-05,1.861558348638704e-05,2.2284809937470565e-05,Unknown
0.3356826919999998,9.996526462786869e-06,6.609547166212844e-06,2.2829701292546845e-05,3.4707499135960873e-05,1.8613979710430224e-05,2.229183399373635e-05,Unknown
0.33620192299999996,9.98229064393229e-06,6.6278443511412e-06,2.283193131256931e-05,3.472968581251679e-05,1.8613144682587328e-05,2.2298281233741487e-05,Unknown
0.33672115400000013,9.972649977731538e-06,6.654278579132784e-06,2.28347360403786e-05,3.473034592643959e-05,1.8614385199126155e-05,2.238979353600669e-05,Unknown
0.3372403850000003,9.97049678318956e-06,6.702279329903473e-06,2.285387702987833e-05,3.473477939490746e-05,1.8617415624379742e-05,2.2505096300628932e-05,Unknown
0.3377596149999995,9.968039029056684e-06,6.775208157298148e-06,2.288327666042908e-05,3.474442313804921e-05,1.862559637615913e-05,2.2549989424075667e-05,Unknown
0.3382788459999997,9.93623149858924e-06,6.860277406592495e-06,2.2910413063478e-05,3.474510038445704e-05,1.8647173378774343e-05,2.254872075969381e-05,Unknown
0.33879807699999986,9.84651260043953e-06,6.928789095768412e-06,2.29312692928893e-05,3.4746569322369266e-05,1.868199740908593e-05,2.255300534861172e-05,Unknown
0.33931730800000004,9.709287991239824e-06,6.955588672959063e-06,2.2949942339382605e-05,3.476400530237758e-05,1.8716307169795555e-05,2.255746884646165e-05,Unknown
0.33983653800000013,9.563259594490187e-06,6.938886014002822e-06,2.297430067798941e-05,3.4788526883335145e-05,1.8738865177274623e-05,2.255717454542926e-05,Unknown
0.3403557690000003,9.421987643452209e-06,6.8939297321810745e-06,2.30144869385804e-05,3.4804352121380855e-05,1.8748940624978543e-05,2.255965724165915e-05,Unknown
0.3408749999999996,9.26378874697222e-06,6.832868100313967e-06,2.3077656407974463e-05,3.48106002542797e-05,1.8750525177277987e-05,2.2562430462300182e-05,Unknown
0.34139423099999977,9.069016899588234e-06,6.757632494313069e-06,2.3160227025976243e-05,3.481431638891329e-05,1.874541534817236e-05,2.2562132632017133e-05,Unknown
0.34191346199999995,8.840521187115762e-06,6.670146640947169e-06,2.325097535479981e-05,3.482086405887442e-05,1.8732841495801503e-05,2.256044314547041e-05,Unknown
0.34243269200000004,8.601737719324693e-06,6.5828287380402296e-06,2.3340386774213135e-05,3.4830361093692386e-05,1.8718641542022105e-05,2.256071266833561e-05,Unknown
0.3429519230000002,8.380638706151715e-06,6.514110223324698e-06,2.3419589843990217e-05,3.4828575679335425e-05,1.8713224600488285e-05,2.256437958926293e-05,Unknown
0.3434711539999995,8.191524831657116e-06,6.473952793646574e-06,2.347610456669316e-05,3.481423210554186e-05,1.8715432728687718e-05,2.2568819836761997e-05,Unknown
0.3439903849999997,8.039061285222994e-06,6.458105915791876e-06,2.3501052502513283e-05,3.482099581962655e-05,1.8715795517064708e-05,2.2571662580005728e-05,Unknown
0.34450961499999977,7.925068038096156e-06,6.4572595707983816e-06,2.350215379760945e-05,3.4850957361525505e-05,1.8713635265910356e-05,2.257340685461413e-05,Unknown
0.34502884599999994,7.842809682891401e-06,6.4656324867242605e-06,2.3498635168174317e-05,3.486660338107432e-05,1.8712237439237058e-05,2.257373084686906e-05,Unknown
0.3455480770000001,7.77788542067868e-06,6.479632082213526e-06,2.3499185320881616e-05,3.486225945626287e-05,1.8711323425340157e-05,2.25742117948206e-05,Unknown
0.3460673080000003,7.721080489636663e-06,6.496717156064394e-06,2.349978416009517e-05,3.485359254512001e-05,1.8707537198324824e-05,2.2575851737076844e-05,Unknown
0.3465865379999995,7.681865933430919e-06,6.52032148028835e-06,2.3499458462774783e-05,3.484448524892462e-05,1.8695505687174155e-05,2.2570210667531636e-05,Unknown
0.3471057689999997,7.669459727390127e-06,6.558284467784648e-06,2.350295110030397e-05,3.483487908219348e-05,1.867817855740383e-05,2.254941131253535e-05,Unknown
0.34762499999999985,7.670718728276843e-06,6.616559311373362e-06,2.351344142812373e-05,3.484071677776137e-05,1.8668866110991207e-05,2.25237204956849e-05,Unknown
0.348144231,7.672696001574276e-06,6.691193481908864e-06,2.3529834776617695e-05,3.490330574984786e-05,1.8673833839236647e-05,2.2539101750381164e-05,Unknown
0.3486634620000002,7.673882559369027e-06,6.765126241630405e-06,2.354899160575994e-05,3.505695666158668e-05,1.8698002362892132e-05,2.271358721331868e-05,Unknown
0.3491826920000003,7.67886026088119e-06,6.824100939224977e-06,2.3565584646959733e-05,3.5276910221484515e-05,1.8761584082015415e-05,2.320766073690137e-05,Unknown
0.3497019229999996,7.693479346686463e-06,6.861567937136429e-06,2.3575098172544615e-05,3.5463002659720794e-05,1.8893708047680603e-05,2.399520041415541e-05,Unknown
0.35022115399999976,7.709876332624482e-06,6.872439227104505e-06,2.3580212705063155e-05,3.5539057587960753e-05,1.9097262291694024e-05,2.474687186737809e-05,Unknown
0.35074038499999993,7.717176352777517e-06,6.863226585846919e-06,2.358629173758429e-05,3.553613981887609e-05,1.9294275896763625e-05,2.5168465108976327e-05,Unknown
0.351259615,7.718121610964483e-06,6.852519332256695e-06,2.359395067565909e-05,3.543855197849931e-05,1.938691529531116e-05,2.5283780539931664e-05,Unknown
0.3517788460000002,7.718453636878063e-06,6.850227238435815e-06,2.359933787294163e-05,3.5175868801626244e-05,1.9393181931450278e-05,2.528629343004939e-05,Unknown
0.3522980769999995,7.718572214485535e-06,6.850321321118204e-06,2.3599671214279628e-05,3.489920103417508e-05,1.940633173133988e-05,2.5305754714305847e-05,Unknown
0.35281730799999966,7.71846520537151e-06,6.844699809731829e-06,2.359649117728468e-05,3.4815950067988024e-05,1.944365206549761e-05,2.53446381948472e-05,Unknown
0.35333653799999976,7.718650224777947e-06,6.8311449973449095e-06,2.3593340948518783e-05,3.4842489635777727e-05,1.945950039648541e-05,2.536832124923136e-05,Unknown
0.35385576899999993,7.717381611885952e-06,6.810306628627816e-06,2.359274463338105e-05,3.4840019623274324e-05,1.944584875917893e-05,2.540480403673668e-05,Unknown
0.3543750000000001,7.712753401202127e-06,6.786154810684443e-06,2.359549624131545e-05,3.484197896471679e-05,1.9425022162719327e-05,2.540476315612309e-05,Unknown
0.3548942310000003,7.701263404931033e-06,6.765277931268226e-06,2.360116398239783e-05,3.495813351478606e-05,1.940541713990733e-05,2.5224819385493027e-05,Unknown
0.35541346199999957,7.686293706324151e-06,6.754618327363195e-06,2.3607340772237383e-05,3.530683204431662e-05,1.938270037815887e-05,2.5012871018828187e-05,Unknown
0.35593269199999966,7.695123701166386e-06,6.751525397813545e-06,2.3609436679535943e-05,3.5849682474005865e-05,1.93564981884924e-05,2.5012080936666827e-05,Unknown
0.35645192299999984,7.73194680285152e-06,6.737779616395079e-06,2.3605257384714618e-05,3.63523408032575e-05,1.933323752361333e-05,2.4983714896699484e-05,Unknown
0.356971154,7.753803579960611e-06,6.705772769989526e-06,2.359962363731064e-05,3.6664887206612186e-05,1.9315827543803896e-05,2.4646331713581737e-05,Unknown
0.3574903850000002,7.75091704773482e-06,6.670272796172417e-06,2.3598412756744257e-05,3.682814535700378e-05,1.9300933977331135e-05,2.423631325423345e-05,Unknown
0.3580096150000003,7.74717417557304e-06,6.646573482649329e-06,2.359998784297169e-05,3.6926233551995626e-05,1.929076053174164e-05,2.408446769613605e-05,Unknown
0.35852884599999957,7.740236835806213e-06,6.638908800571924e-06,2.3600005016644995e-05,3.699089961628425e-05,1.929398501624982e-05,2.408910577647745e-05,Unknown
0.35904807699999974,7.726629428624066e-06,6.643992189573875e-06,2.3599046733687716e-05,3.700559332720515e-05,1.929305219827697e-05,2.391763603571261e-05,Unknown
0.3595673079999999,7.714841285476764e-06,6.6533006348426825e-06,2.359942749257541e-05,3.696122192833271e-05,1.924687834264802e-05,2.347084092937065e-05,Unknown
0.360086538,7.702127248753984e-06,6.657153921358185e-06,2.360026791325038e-05,3.68908258929595e-05,1.91736514536982e-05,2.294977334357698e-05,Unknown
0.3606057690000002,7.678362283271077e-06,6.654247347224501e-06,2.3600104082592508e-05,3.683571587193845e-05,1.9142222466798937e-05,2.2601811140858592e-05,Unknown
0.36112500000000036,7.629042767359165e-06,6.6503818106900775e-06,2.36049193255213e-05,3.6808897740134426e-05,1.915907437333185e-05,2.250291973801576e-05,Unknown
0.36164423099999965,7.557399664744552e-06,6.649417912228675e-06,2.363156065069824e-05,3.680055793733909e-05,1.918405261712834e-05,2.2513002859191538e-05,Unknown
0.3621634619999998,7.49397173018377e-06,6.6504750290301095e-06,2.36975818560163e-05,3.680070515512783e-05,1.918522333253855e-05,2.246251997506899e-05,Unknown
0.3626826919999999,7.445321800390774e-06,6.650789968174519e-06,2.3805910867244183e-05,3.680613261879224e-05,1.9144154070755514e-05,2.2376202360388456e-05,Unknown
0.3632019230000001,7.388466928665225e-06,6.651620064409063e-06,2.393933258165168e-05,3.681039295244285e-05,1.9097548224312457e-05,2.234783508586257e-05,Unknown
0.36372115400000027,7.314953500912137e-06,6.658768838108247e-06,2.406818323505994e-05,3.678128543484847e-05,1.9099937986376533e-05,2.234971170704725e-05,Unknown
0.36424038499999956,7.237759956753813e-06,6.673578800873267e-06,2.4166130292295967e-05,3.667103040252727e-05,1.915996039522912e-05,2.234154539252937e-05,Unknown
0.36475961499999965,7.179168193647592e-06,6.692822354207754e-06,2.4223556837407813e-05,3.651066614478885e-05,1.9268421686479466e-05,2.23335257700984e-05,Unknown
0.3652788459999998,7.150493029521709e-06,6.716084773014983e-06,2.424747247030584e-05,3.642389459842553e-05,1.941653522413932e-05,2.2332103579914376e-05,Unknown
0.365798077,7.140770034747794e-06,6.744489093185627e-06,2.425210804668029e-05,3.6445163896663054e-05,1.956694882159955e-05,2.2326938978893312e-05,Unknown
0.3663173080000002,7.134589736059502e-06,6.781368093796418e-06,2.425185109837208e-05,3.646235738108137e-05,1.965482317679646e-05,2.230249009173352e-05,Unknown
0.36683653800000027,7.121446011256966e-06,6.828863466837547e-06,2.425413907342843e-05,3.642288879917364e-05,1.9669001877740765e-05,2.2266947740831194e-05,Unknown
0.36735576899999955,7.098344488878903e-06,6.878318553621669e-06,2.4254879962095817e-05,3.639642340413386e-05,1.966926555381591e-05,2.2249342127705984e-05,Unknown
0.36787499999999973,7.076880486061336e-06,6.918830688455894e-06,2.425251543993651e-05,3.641604896827035e-05,1.9683812343609936e-05,2.2260870061419477e-05,Unknown
0.3683942309999999,7.06301497787981e-06,6.9503299358651815e-06,2.425313670723305e-05,3.645087776140243e-05,1.970661767977858e-05,2.225668990030482e-05,Unknown
0.3689134620000001,7.0438198772054e-06,6.979902385609811e-06,2.425337870738684e-05,3.648841452892622e-05,1.9757156575456143e-05,2.215114967574835e-05,Unknown
0.3694326920000002,7.017404269845508e-06,7.014192222646117e-06,2.425709873684859e-05,3.652640372773518e-05,1.9863344701501852e-05,2.194462244339765e-05,Unknown
0.36995192300000035,6.997965612105991e-06,7.053857634951859e-06,2.4291293531387407e-05,3.655209497439561e-05,2.00125751987173e-05,2.178490604182648e-05,Unknown
0.37047115399999964,6.985709956451582e-06,7.092818794052859e-06,2.437212064774239e-05,3.65605974246159e-05,2.011397619810604e-05,2.1755134352183785e-05,Unknown
0.3709903849999998,6.967719865728535e-06,7.12410462838236e-06,2.449235147098351e-05,3.655525987465084e-05,2.01113852575824e-05,2.1748276144125188e-05,Unknown
0.3715096149999999,6.93682886003226e-06,7.140745716660895e-06,2.4645422158159625e-05,3.654454185789346e-05,2.008461119394632e-05,2.168762909239892e-05,Unknown
0.3720288460000001,6.903799027963212e-06,7.138971246484244e-06,2.482760893906964e-05,3.65476338409616e-05,2.0102530002921584e-05,2.1612321353574392e-05,Unknown
0.37254807700000026,6.888725736443255e-06,7.136790928669919e-06,2.5012130972950744e-05,3.65570637209659e-05,2.014005726739963e-05,2.1547818754241304e-05,Unknown
0.37306730799999954,6.887135404406214e-06,7.170740764521897e-06,2.515280276385424e-05,3.646938558348895e-05,2.0165683770371708e-05,2.149224575887729e-05,Unknown
0.37358653799999963,6.884179644374437e-06,7.255240635371124e-06,2.5230995828486825e-05,3.6200410259919785e-05,2.0162113830871037e-05,2.147192769398773e-05,Unknown
0.3741057689999998,6.883525316739472e-06,7.376378885404408e-06,2.526678706790548e-05,3.5894321997816234e-05,2.0134408840941727e-05,2.148348744605931e-05,Unknown
0.374625,6.884989872345849e-06,7.525531444618652e-06,2.528486649765523e-05,3.575107298276792e-05,2.0116461580413585e-05,2.1397324186493072e-05,Unknown
0.37514423100000016,6.8838052231973376e-06,7.707477291442491e-06,2.5294973439744172e-05,3.574967838055962e-05,2.011507993875011e-05,2.1191238441498423e-05,Unknown
0.37566346200000034,6.875461124149096e-06,7.916732972174617e-06,2.529373846896468e-05,3.577694805764436e-05,2.0113941391933867e-05,2.106101312952083e-05,Unknown
0.37618269199999954,6.84969901003721e-06,8.123366544430394e-06,2.527682273423603e-05,3.5794566720672326e-05,2.0113684545702423e-05,2.10516712368132e-05,Unknown
0.3767019229999997,6.81747002757393e-06,8.30245729559279e-06,2.524765730251125e-05,3.580007900801406e-05,2.011921786999209e-05,2.103090229154592e-05,Unknown
0.3772211539999999,6.79569230740236e-06,8.463315593143756e-06,2.520738342285334e-05,3.578788539921297e-05,2.0128129985740556e-05,2.0976064086373748e-05,Unknown
0.37774038500000007,6.779553790607317e-06,8.630775023093137e-06,2.5146460822961204e-05,3.575102049722043e-05,2.013619550039837e-05,2.094915365229499e-05,Unknown
0.37825961500000016,6.76746145904012e-06,8.81236510480727e-06,2.506076839737796e-05,3.569263647042545e-05,2.014210582906925e-05,2.095037395105804e-05,Unknown
0.37877884600000034,6.757135491247888e-06,8.982350246320546e-06,2.4968473553959557e-05,3.563186013812912e-05,2.0147351171747466e-05,2.0917782339468e-05,Unknown
0.3792980769999996,6.741773007948851e-06,9.100279178992776e-06,2.489597569082693e-05,3.5581172825680386e-05,2.0151489696572115e-05,2.081635584265841e-05,Unknown
0.3798173079999998,6.7322512510794485e-06,9.15723046968485e-06,2.485327354467491e-05,3.553508280854524e-05,2.015351653137608e-05,2.069893183603688e-05,Unknown
0.3803365379999999,6.732679231178164e-06,9.180099209429548e-06,2.4831747617253603e-05,3.549402386580608e-05,2.0155426482156563e-05,2.063926908178529e-05,Unknown
0.38085576900000007,6.732666330040066e-06,9.19496071486896e-06,2.4818539154354207e-05,3.546964983727643e-05,2.016033234371817e-05,2.063194375765528e-05,Unknown
0.38137500000000024,6.732692759593032e-06,9.215162957859752e-06,2.4806297582145075e-05,3.5459759632556185e-05,2.0164214702948547e-05,2.063316845722792e-05,Unknown
0.38189423099999953,6.725298002986782e-06,9.242615491300424e-06,2.479411732335855e-05,3.545832394494325e-05,2.016281457982943e-05,2.0627708010455992e-05,Unknown
0.3824134619999997,6.707136921233823e-06,9.266618073866495e-06,2.4786480869399617e-05,3.547504667236405e-05,2.016274270149829e-05,2.0619724144443072e-05,Unknown
0.3829326919999998,6.6975329800034055e-06,9.278705973627835e-06,2.4789602137528253e-05,3.55050691616108e-05,2.016824538283649e-05,2.0617304971425317e-05,Unknown
