Time,Rectus Femoris,Vastus Medialis,Vastus Lateralis,Bicep Femoris,Tibialis,Gastrocnemius Medialis,Activity
0.0,7.399938643785341e-06,3.889726635344392e-06,4.507790238463424e-06,3.612329169700566e-06,5.998366917879015e-06,2.253587105722276e-06,Unknown
0.0005192310000001754,7.3971973203612575e-06,3.890315979193292e-06,4.502417827753468e-06,3.618591527015159e-06,5.995952232489257e-06,2.2509928343324517e-06,Unknown
0.0010384620000003508,7.400212774699993e-06,3.888708264566463e-06,4.477035291451057e-06,3.624621245117841e-06,5.990160899171701e-06,2.247134615028489e-06,Unknown
0.0015576920000004435,7.4145420522026674e-06,3.881788499713763e-06,4.43936763150196e-06,3.633053156000006e-06,5.987289598524123e-06,2.247228011791495e-06,Unknown
0.002076923000000619,7.410941561434961e-06,3.8697192265871815e-06,4.410087475702542e-06,3.637958546893813e-06,5.993303536571949e-06,2.2470308731924763e-06,Unknown
0.002596153999999906,7.374042748791834e-06,3.85924922938915e-06,4.398286857598939e-06,3.6375870799279406e-06,5.994424810657255e-06,2.244820575489429e-06,Unknown
0.0031153850000000816,7.336442726037135e-06,3.852467098775854e-06,4.397641710880879e-06,3.636228529424952e-06,5.984322079398065e-06,2.242698643318291e-06,Unknown
0.0036346150000001742,7.311507086096642e-06,3.844157346326683e-06,4.400041723139961e-06,3.636541195855773e-06,5.980876696566031e-06,2.238607645134948e-06,Unknown
0.00415384600000035,7.291196708503553e-06,3.830587635974999e-06,4.401975394896603e-06,3.638234841644682e-06,5.981601488335842e-06,2.229751593403395e-06,Unknown
0.004673077000000525,7.2576075904117075e-06,3.814210718271434e-06,4.40352423223292e-06,3.6389390896577806e-06,5.977942872243338e-06,2.215588870600949e-06,Unknown
0.005192307999999812,7.193197789169422e-06,3.798926335167557e-06,4.4061592433237325e-06,3.638389085656523e-06,5.976807365961405e-06,2.2005488960898967e-06,Unknown
0.005711537999999905,7.14294510892928e-06,3.782149900984471e-06,4.411197030428342e-06,3.639387404450722e-06,5.976798376886976e-06,2.19226736204706e-06,Unknown
0.00623076900000008,7.142770842625658e-06,3.763387882289687e-06,4.416438343103892e-06,3.6438214612917647e-06,5.978862612057004e-06,2.1912960035371164e-06,Unknown
0.006750000000000256,7.1545129991511176e-06,3.7521508149390914e-06,4.416655599593788e-06,3.6533332101842832e-06,5.981883108187369e-06,2.193433671235511e-06,Unknown
0.007269231000000431,7.155745581389904e-06,3.7513944315157063e-06,4.411218383926454e-06,3.6681838177368297e-06,5.977671443679324e-06,2.1906336128116666e-06,Unknown
0.007788462000000607,7.152671433843516e-06,3.7485365008639495e-06,4.404575193675783e-06,3.6841707969833504e-06,5.972394438581778e-06,2.175281751850937e-06,Unknown
0.008307691999999811,7.146030168339576e-06,3.7439490057053223e-06,4.400515684138178e-06,3.696789149601076e-06,5.9727749706055086e-06,2.154936375449025e-06,Unknown
0.008826922999999987,7.144487017360888e-06,3.745995930497208e-06,4.399182720260232e-06,3.7034844929422855e-06,5.971505371689247e-06,2.137785758755773e-06,Unknown
0.009346154000000162,7.151313536469639e-06,3.744561341399918e-06,4.398254193183359e-06,3.7046526486201806e-06,5.967526197801929e-06,2.122498318587248e-06,Unknown
0.009865385000000337,7.157403688729928e-06,3.7398222337577983e-06,4.398896395338145e-06,3.702980268639705e-06,5.971468868959178e-06,2.1127997618811377e-06,Unknown
0.01038461500000043,7.161090347814606e-06,3.7411672960462457e-06,4.3995092921226345e-06,3.699858612819751e-06,5.9891710372817046e-06,2.110401774465196e-06,Unknown
0.010903846000000605,7.155733967004617e-06,3.7390006909213273e-06,4.39668634962088e-06,3.695004822682397e-06,6.014983762525198e-06,2.121753792130765e-06,Unknown
0.011423076999999893,7.134928278836768e-06,3.725626906813961e-06,4.394436267716592e-06,3.6892117671454218e-06,6.036030627039658e-06,2.157963360816757e-06,Unknown
0.011942308000000068,7.10885909941149e-06,3.708469132766408e-06,4.3937781466757725e-06,3.6878936470364896e-06,6.043202460984507e-06,2.200796099599094e-06,Unknown
0.01246153800000016,7.075852997878748e-06,3.6933221097764216e-06,4.391782718475228e-06,3.692855695591708e-06,6.034637450368138e-06,2.224346833540669e-06,Unknown
0.012980769000000336,7.035922419755576e-06,3.676884614027571e-06,4.379751306822002e-06,3.701938107057208e-06,6.0098656142143966e-06,2.231066600582194e-06,Unknown
0.013500000000000512,7.000075492855906e-06,3.656306089191428e-06,4.357901210907768e-06,3.714264583562211e-06,5.978727718075789e-06,2.2289544622855826e-06,Unknown
0.014019230999999799,6.953763964261629e-06,3.635303694499064e-06,4.352357818480822e-06,3.7280386158895897e-06,5.954027447384823e-06,2.223669774676076e-06,Unknown
0.014538461999999974,6.893407044148391e-06,3.6179235084107503e-06,4.3671329828725546e-06,3.74625275060856e-06,5.928561004337118e-06,2.222289797341002e-06,Unknown
0.015057692000000067,6.851876131736293e-06,3.604908840862315e-06,4.37846670693156e-06,3.7593603615293465e-06,5.898677537286399e-06,2.2222730349399373e-06,Unknown
0.015576923000000242,6.834022106716786e-06,3.5920166242513327e-06,4.379658508233864e-06,3.746740220758219e-06,5.878007075801559e-06,2.222191068611042e-06,Unknown
0.016096154000000418,6.822214626490065e-06,3.5722450130123845e-06,4.380778861258286e-06,3.724663000354831e-06,5.865674029649827e-06,2.2250955350095275e-06,Unknown
0.016615385000000593,6.8157416136354525e-06,3.550178198250208e-06,4.388118212699337e-06,3.7265770029523584e-06,5.853656971597634e-06,2.2295085900953594e-06,Unknown
0.017134614999999798,6.811839787001423e-06,3.538466145832984e-06,4.396873006565641e-06,3.7406730593790047e-06,5.8458699100256665e-06,2.2324255923977206e-06,Unknown
0.017653845999999973,6.816032857512048e-06,3.538584805458614e-06,4.403943587792626e-06,3.742273321889479e-06,5.842320147088416e-06,2.2338287981436536e-06,Unknown
0.01817307700000015,6.823969849274264e-06,3.544664708727799e-06,4.4137352109870765e-06,3.740664687227967e-06,5.840013054436124e-06,2.2327783687197365e-06,Unknown
0.018692308000000324,6.8061810671198825e-06,3.5527178431499137e-06,4.432053358646539e-06,3.7423703425274632e-06,5.841368053227926e-06,2.228605310240312e-06,Unknown
0.019211538000000417,6.776255811355306e-06,3.5540461272089824e-06,4.452442336186736e-06,3.7380670908603048e-06,5.846452949918654e-06,2.2289877416511164e-06,Unknown
0.019730769000000592,6.765691766433231e-06,3.5431502702475734e-06,4.455598301416941e-06,3.731745746480736e-06,5.854332413172099e-06,2.2407100355201503e-06,Unknown
0.02024999999999988,6.764600579995911e-06,3.533273982337556e-06,4.438185822146077e-06,3.729986436358606e-06,5.860573618586774e-06,2.26174206267208e-06,Unknown
0.020769231000000055,6.7579115240405695e-06,3.5362087545076577e-06,4.412412405622353e-06,3.732278541110083e-06,5.858114593044192e-06,2.286993386972833e-06,Unknown
0.02128846200000023,6.711682288704436e-06,3.5440758456465373e-06,4.384626222561465e-06,3.735648399768903e-06,5.855401406621809e-06,2.308807815523798e-06,Unknown
0.021807692000000323,6.590823675507037e-06,3.5455674697698776e-06,4.363111350957301e-06,3.73534145122836e-06,5.861107561786735e-06,2.318026917434585e-06,Unknown
0.022326923000000498,6.448991359431062e-06,3.536377094234463e-06,4.3528442451053645e-06,3.7392016680613856e-06,5.8663690336693e-06,2.318029563387806e-06,Unknown
0.022846153999999785,6.364832615024998e-06,3.517540968141356e-06,4.346612875033937e-06,3.7500553227969545e-06,5.867512862259212e-06,2.3266057401108245e-06,Unknown
0.02336538499999996,6.338647261312442e-06,3.491250370438251e-06,4.341575120716953e-06,3.749358265676912e-06,5.87127196233118e-06,2.3478983304942468e-06,Unknown
0.023884615000000053,6.327276908794936e-06,3.453971621469634e-06,4.336561031048464e-06,3.735865675892448e-06,5.8800689204789e-06,2.3654679078542223e-06,Unknown
0.02440384600000023,6.2904118232118135e-06,3.3982880498382605e-06,4.322743163865353e-06,3.726716882913757e-06,5.886191007576836e-06,2.369733602409387e-06,Unknown
0.024923077000000404,6.223669362167636e-06,3.326800141842357e-06,4.295242988721604e-06,3.7233556742520873e-06,5.872313270817279e-06,2.369950724418372e-06,Unknown
0.02544230800000058,6.159308381282849e-06,3.2561008193377656e-06,4.267095438875296e-06,3.7182322399768094e-06,5.819588918377744e-06,2.3786018600873286e-06,Unknown
0.025961537999999784,6.113363560706701e-06,3.1985312404368706e-06,4.256647740993739e-06,3.7070240200269434e-06,5.728761155245739e-06,2.39753096646702e-06,Unknown
0.02648076899999996,6.086107778725448e-06,3.1544525491377976e-06,4.257781140055597e-06,3.687323777017581e-06,5.634661221415279e-06,2.4182859475291577e-06,Unknown
0.027000000000000135,6.081790889850318e-06,3.121313771011413e-06,4.257979040373615e-06,3.6667026923392223e-06,5.571781966751136e-06,2.4309876357140884e-06,Unknown
0.02751923100000031,6.085592755675607e-06,3.097387880044264e-06,4.255529618684487e-06,3.65666457127146e-06,5.537186838674781e-06,2.435004497601781e-06,Unknown
0.028038462000000486,6.084907937790221e-06,3.0813462498352062e-06,4.245082051017271e-06,3.653318504912269e-06,5.508756455051634e-06,2.434951986495089e-06,Unknown
0.02855769200000058,6.088936142018839e-06,3.072353896695188e-06,4.236579776667674e-06,3.652850678863763e-06,5.471978429708237e-06,2.434146413272172e-06,Unknown
0.029076922999999866,6.090223295699949e-06,3.069472566760276e-06,4.243046528719394e-06,3.6616831558504503e-06,5.433585255076482e-06,2.433900471976542e-06,Unknown
0.02959615400000004,6.088905097804028e-06,3.0697922108925e-06,4.2508724588870325e-06,3.674121655437152e-06,5.407931655026495e-06,2.4339528785446505e-06,Unknown
0.030115385000000217,6.09035585698525e-06,3.067716603740449e-06,4.251681875803952e-06,3.6787996466694496e-06,5.391223955024868e-06,2.4341846088108096e-06,Unknown
0.03063461500000031,6.071326535054088e-06,3.060568946303291e-06,4.252457675427887e-06,3.675622799104208e-06,5.371182618595689e-06,2.434953736852611e-06,Unknown
0.031153846000000485,6.047255761461967e-06,3.049950569573349e-06,4.2531080303185095e-06,3.669431125955026e-06,5.346164996424838e-06,2.438966511710752e-06,Unknown
0.03167307699999977,6.051716148871252e-06,3.0381500922916497e-06,4.254693961723468e-06,3.673223712922311e-06,5.324945887493888e-06,2.4488829214372966e-06,Unknown
0.03219230799999995,6.064672922980075e-06,3.025965690835332e-06,4.262419911151061e-06,3.698883589075536e-06,5.31285249222637e-06,2.466845127765507e-06,Unknown
0.03271153800000004,6.046002442325704e-06,3.011281439405616e-06,4.275236691668088e-06,3.726838209110375e-06,5.306571923198077e-06,2.492302549838121e-06,Unknown
0.033230769000000215,5.961887215952778e-06,2.990446975087788e-06,4.290212013950901e-06,3.731652457177161e-06,5.297390160845078e-06,2.515551420027544e-06,Unknown
0.03375000000000039,5.818976745996149e-06,2.959993951566843e-06,4.305113795421067e-06,3.720049714932508e-06,5.281722639120501e-06,2.530935692256945e-06,Unknown
0.034269231000000566,5.687816699026541e-06,2.9141568726232204e-06,4.316749511230124e-06,3.706295474178384e-06,5.26955834405725e-06,2.541873119118261e-06,Unknown
0.03478846199999985,5.620245163397079e-06,2.8548313246646344e-06,4.323266535120244e-06,3.698238739232607e-06,5.26899356187876e-06,2.547214422928613e-06,Unknown
0.035307691999999946,5.595507947044943e-06,2.803259180181717e-06,4.325003089290999e-06,3.70519025630057e-06,5.272060691964963e-06,2.547278902759073e-06,Unknown
0.03582692300000012,5.572946436670816e-06,2.776295352660618e-06,4.324940413399926e-06,3.7192027720401305e-06,5.268350700296488e-06,2.5470370699144488e-06,Unknown
0.0363461540000003,5.52271078396536e-06,2.767755287913816e-06,4.325116454485944e-06,3.721961481239561e-06,5.2605985489540135e-06,2.5480417086038037e-06,Unknown
0.03686538500000047,5.437543831416429e-06,2.763331394789584e-06,4.326654802711064e-06,3.715962131865062e-06,5.253007204931175e-06,2.545816816450078e-06,Unknown
0.037384615000000565,5.355641705228105e-06,2.7567045929460803e-06,4.329444937205488e-06,3.721110555393076e-06,5.24419118623591e-06,2.5402404917246137e-06,Unknown
0.03790384599999985,5.312475076414843e-06,2.7508826830677264e-06,4.327034787047651e-06,3.7487152680344807e-06,5.236831382380251e-06,2.5390547570044483e-06,Unknown
0.03842307700000003,5.294828337054935e-06,2.7481529544426145e-06,4.320348916316467e-06,3.7886093833429622e-06,5.228766163932908e-06,2.537149195593519e-06,Unknown
0.0389423080000002,5.288309669853902e-06,2.7471650659800204e-06,4.321475803879742e-06,3.821732277982301e-06,5.201575712419542e-06,2.5275058704861874e-06,Unknown
0.039461538000000296,5.2847939500280445e-06,2.747841976475656e-06,4.334082047690457e-06,3.841855023761759e-06,5.136282301818241e-06,2.520426401886789e-06,Unknown
0.03998076900000047,5.278260148406747e-06,2.750559098806657e-06,4.354633277641036e-06,3.856705797151177e-06,5.038734696887934e-06,2.52034332266608e-06,Unknown
0.04049999999999976,5.2805700920052205e-06,2.751326637490952e-06,4.3804246325822615e-06,3.876857901817016e-06,4.946783128168302e-06,2.52018759113959e-06,Unknown
0.041019230999999934,5.284938432078154e-06,2.7505083483300942e-06,4.406704305552611e-06,3.908846230507802e-06,4.898471522855673e-06,2.519837954786843e-06,Unknown
0.04153846200000011,5.278073309359342e-06,2.7536867932316223e-06,4.430675513406146e-06,3.945852601736689e-06,4.888498370056271e-06,2.523099916314698e-06,Unknown
0.0420576920000002,5.265853889994315e-06,2.7594927214304064e-06,4.452884158984266e-06,3.974541693193861e-06,4.8909664701549e-06,2.523139820295536e-06,Unknown
0.04257692300000038,5.2376052704704085e-06,2.7642154214373566e-06,4.471659478915416e-06,3.992103736717696e-06,4.897646128267889e-06,2.5240016601196912e-06,Unknown
0.04309615400000055,5.193116210084603e-06,2.768326652539613e-06,4.484591053005659e-06,4.00456448075231e-06,4.900104510038104e-06,2.5722147997111563e-06,Unknown
0.04361538499999984,5.159319936950117e-06,2.773743226192592e-06,4.4905388455236805e-06,4.0197539515157e-06,4.900113557505864e-06,2.671986084409797e-06,Unknown
0.04413461499999993,5.137149479898733e-06,2.7793755171016618e-06,4.489133161987204e-06,4.041011650863038e-06,4.902210562256032e-06,2.7330805505857183e-06,Unknown
0.04465384600000011,5.119275864721349e-06,2.781044631890113e-06,4.483944148527072e-06,4.055823431237565e-06,4.88674566284352e-06,2.7327470489117904e-06,Unknown
0.045173077000000283,5.103553716689332e-06,2.777467973673264e-06,4.479971068809753e-06,4.056290617531192e-06,4.863311995989035e-06,2.773814878340657e-06,Unknown
0.04569230800000046,5.081602371843617e-06,2.76889464473735e-06,4.476343176629008e-06,4.068592549032744e-06,4.85900958245572e-06,2.882836965151084e-06,Unknown
0.04621153800000055,5.070092662086365e-06,2.754388109562393e-06,4.469234567312383e-06,4.110946784910355e-06,4.856018700578908e-06,2.966207359237664e-06,Unknown
0.04673076899999984,5.0756045273428215e-06,2.735416148493203e-06,4.460747179333942e-06,4.159335147430095e-06,4.8414532457858965e-06,2.9892048161351947e-06,Unknown
0.047250000000000014,5.077002068270804e-06,2.716262811514732e-06,4.461148184768865e-06,4.19327768487181e-06,4.837886382212106e-06,2.98969464492504e-06,Unknown
0.04776923100000019,5.0755314550096335e-06,2.698552224947963e-06,4.4711091652877815e-06,4.218554250006457e-06,4.846218061095775e-06,2.98961386454119e-06,Unknown
0.048288462000000365,5.073038005241432e-06,2.679902872274498e-06,4.476378406812215e-06,4.248327710635058e-06,4.834998811993865e-06,2.9894574326248554e-06,Unknown
0.04880769200000046,5.062700453873933e-06,2.658173845914654e-06,4.477943707566544e-06,4.291377090422701e-06,4.785416218487719e-06,2.987179044469514e-06,Unknown
0.04932692300000063,5.05517868835871e-06,2.6349934614535028e-06,4.495765503002051e-06,4.3472693177832576e-06,4.718408733154322e-06,2.9808730157730905e-06,Unknown
0.04984615399999992,5.055722757043057e-06,2.6189511577475074e-06,4.536146760387459e-06,4.411017474033624e-06,4.673142314283524e-06,2.971584167593961e-06,Unknown
0.050365385000000096,5.063122183389846e-06,2.6147957110786717e-06,4.582458820418284e-06,4.475639178634424e-06,4.659656176814143e-06,2.9626297867307e-06,Unknown
0.05088461500000019,5.086087938688045e-06,2.6151845848107536e-06,4.616293745952473e-06,4.525327818552608e-06,4.660470580929439e-06,2.959439803716365e-06,Unknown
0.051403846000000364,5.115994145772946e-06,2.611284760419806e-06,4.635661150864837e-06,4.547457153529201e-06,4.665090894726696e-06,2.9627621445029484e-06,Unknown
0.05192307700000054,5.1286781484524296e-06,2.6062875453362216e-06,4.650751847137212e-06,4.550658580408113e-06,4.6717450308261466e-06,2.9634198698482203e-06,Unknown
0.052442307999999827,5.129061016911056e-06,2.6110507663341903e-06,4.671063612523789e-06,4.5499660189187705e-06,4.676890218669531e-06,2.9537354406629918e-06,Unknown
0.05296153799999992,5.128793680448372e-06,2.6242415873373398e-06,4.700749818587773e-06,4.551953131382625e-06,4.6780491309847606e-06,2.938158377817894e-06,Unknown
0.053480769000000095,5.1334846106099424e-06,2.638107844434386e-06,4.730939312195671e-06,4.564065368940499e-06,4.678109885839466e-06,2.9259048441700016e-06,Unknown
0.05400000000000027,5.156204489647065e-06,2.6514297297388434e-06,4.749521516413809e-06,4.585033732853641e-06,4.678010387986316e-06,2.9202004544852315e-06,Unknown
0.054519231000000445,5.163013847099208e-06,2.664174152496649e-06,4.7568182360237e-06,4.5993610386367255e-06,4.676582770005581e-06,2.9184158409034578e-06,Unknown
0.05503846200000062,5.129033097015597e-06,2.671638400685693e-06,4.757824921438009e-06,4.601951892469981e-06,4.677246871146203e-06,2.9178037118117124e-06,Unknown
0.055557691999999825,5.102252480432248e-06,2.6723330968963925e-06,4.7560749486322045e-06,4.600272659242681e-06,4.6760050384623644e-06,2.9189015497740853e-06,Unknown
0.056076923,5.095729700655778e-06,2.6712437613110383e-06,4.754738022560573e-06,4.600321577299068e-06,4.666144170558523e-06,2.925482156419363e-06,Unknown
0.056596154000000176,5.090632753881941e-06,2.6703285087363822e-06,4.754632049132997e-06,4.601758256072803e-06,4.653207473206124e-06,2.93902347355443e-06,Unknown
0.05711538500000035,5.077362201238255e-06,2.6706261323641283e-06,4.7546996233555145e-06,4.599126839121801e-06,4.643173391721568e-06,2.9532765480854324e-06,Unknown
0.057634615000000444,5.034850388226696e-06,2.666974228200257e-06,4.759121653214299e-06,4.6021401172077205e-06,4.636005027783465e-06,2.9609991043374417e-06,Unknown
0.05815384600000062,5.005371215073382e-06,2.652848616520515e-06,4.77578305039852e-06,4.640380659152311e-06,4.63130034021365e-06,2.9629529831557944e-06,Unknown
0.05867307699999991,5.036685194888404e-06,2.6420372733212905e-06,4.797188957837045e-06,4.737904186544811e-06,4.628853761932597e-06,2.964303017981221e-06,Unknown
0.05919230800000008,5.079808813426976e-06,2.657620782725118e-06,4.80840561426655e-06,4.905694530741003e-06,4.62851415358479e-06,2.96955948597514e-06,Unknown
0.059711538000000175,5.091991582799663e-06,2.712648850720745e-06,4.811654739898494e-06,5.144833909009312e-06,4.628938954707398e-06,2.978264080957931e-06,Unknown
0.06023076900000035,5.088916972053501e-06,2.782979418644459e-06,4.8167259116050895e-06,5.418698563429313e-06,4.625406071775656e-06,2.9846120718609044e-06,Unknown
0.060750000000000526,5.084893308660403e-06,2.8248508092776875e-06,4.846114561516666e-06,5.638898001093624e-06,4.604639114001276e-06,2.985652658445074e-06,Unknown
0.06126923099999981,5.078030710124305e-06,2.838256342059768e-06,4.933596778473797e-06,5.7373611983863575e-06,4.544624052630135e-06,2.9833742854056965e-06,Unknown
0.06178846199999999,5.06229869398664e-06,2.845242330134601e-06,5.065483245579219e-06,5.742806851659719e-06,4.438581140426723e-06,2.981419032867387e-06,Unknown
0.06230769200000008,5.040543373542427e-06,2.858511912180146e-06,5.184620195382768e-06,5.734317278694922e-06,4.334375197816888e-06,2.980455736910545e-06,Unknown
0.06282692300000026,5.026362605320897e-06,2.877756547573924e-06,5.262065608054655e-06,5.743848440514734e-06,4.297098321095062e-06,2.9790486663008736e-06,Unknown
0.06334615400000043,5.018488871795695e-06,2.8876775959196894e-06,5.313862826644417e-06,5.756111675958041e-06,4.297987840070583e-06,2.977031845670516e-06,Unknown
0.06386538500000061,5.009325319110141e-06,2.8864684212560745e-06,5.376880074465319e-06,5.760515518185357e-06,4.236540015673875e-06,2.9753258228977613e-06,Unknown
0.06438461499999981,5.011218241962953e-06,2.886924086191484e-06,5.478731321405106e-06,5.7605176188849736e-06,4.066275225192978e-06,2.9745055985092225e-06,Unknown
0.06490384599999999,5.0205663932500986e-06,2.901691027272228e-06,5.599086239207707e-06,5.759994400547719e-06,3.822070279131943e-06,2.9733116498690264e-06,Unknown
0.06542307700000016,5.014612836135816e-06,2.9259319084567404e-06,5.679894480643138e-06,5.760227230808486e-06,3.576394111170628e-06,2.971027164333141e-06,Unknown
0.06594230800000034,5.002084958674226e-06,2.937957715581955e-06,5.697226500595042e-06,5.770789719306569e-06,3.4054571430152905e-06,2.9693802453302053e-06,Unknown
0.06646153800000043,4.994351530125568e-06,2.927898901399968e-06,5.685489235321985e-06,5.816688641599715e-06,3.341681318331326e-06,2.967752688191887e-06,Unknown
0.0669807690000006,4.987982510836008e-06,2.897432287671811e-06,5.677137052444605e-06,5.904201610666538e-06,3.341433779960546e-06,2.966060081220565e-06,Unknown
0.0674999999999999,4.992188357704361e-06,2.865245032470628e-06,5.67337294731673e-06,5.988536457820156e-06,3.347411514318532e-06,2.974181800397385e-06,Unknown
0.06801923100000007,4.997129790486562e-06,2.8571656296330835e-06,5.670214616451276e-06,6.025492664863635e-06,3.342024129019338e-06,2.9927996117242563e-06,Unknown
0.06853846200000024,4.993298916741341e-06,2.8661299384157165e-06,5.67045650314956e-06,6.02044582684162e-06,3.321537216704908e-06,3.00575170144308e-06,Unknown
0.06905769200000034,4.988527343113147e-06,2.8791230650414286e-06,5.685996504614382e-06,6.00237209151072e-06,3.2949585386119927e-06,3.009146033062963e-06,Unknown
0.06957692300000051,4.969802699639622e-06,2.9021680300549976e-06,5.724589175439279e-06,5.999845380360873e-06,3.2849344729928422e-06,3.008684801703321e-06,Unknown
0.0700961539999998,4.951076585893658e-06,2.9355260642538416e-06,5.774075141752367e-06,6.049751680114511e-06,3.2883972725144704e-06,3.0038122489557974e-06,Unknown
0.07061538499999997,4.953738052496622e-06,2.9778087877832792e-06,5.820094138441925e-06,6.209688802709585e-06,3.285582990962433e-06,2.997429732055009e-06,Unknown
0.07113461500000007,4.954427486040799e-06,3.0362699660894765e-06,5.862020404000561e-06,6.4961887397398906e-06,3.276832592281475e-06,2.995819858082321e-06,Unknown
0.07165384600000024,4.944133524904632e-06,3.110154285826331e-06,5.90623089525464e-06,6.798044217657831e-06,3.2728610693737e-06,2.9957111354771877e-06,Unknown
0.07217307700000042,4.9337875159150935e-06,3.1806560857021816e-06,5.95706528086848e-06,6.979817241548136e-06,3.27273716018075e-06,2.99810499873831e-06,Unknown
0.0726923080000006,4.926368464280095e-06,3.2300119392371936e-06,6.006236371018823e-06,7.034184738722367e-06,3.272377031836693e-06,3.0086562956350986e-06,Unknown
0.0732115379999998,4.920140617591043e-06,3.2621035951629582e-06,6.037481988590106e-06,7.0380420668803045e-06,3.274561327540358e-06,3.0134738602959144e-06,Unknown
0.07373076899999997,4.895453921781975e-06,3.292501209443488e-06,6.049295842450743e-06,7.038917622594155e-06,3.278098516234318e-06,3.0074310218205936e-06,Unknown
0.07425000000000015,4.840930540784727e-06,3.3221553435792287e-06,6.052762992899496e-06,7.039939074949361e-06,3.280003888199525e-06,3.0043108620676843e-06,Unknown
0.07476923100000032,4.7879450944713965e-06,3.3407441323913026e-06,6.055120080702013e-06,7.035552378761188e-06,3.2877092266894493e-06,3.0042999458502757e-06,Unknown
0.0752884620000005,4.7681837810060926e-06,3.346466400028017e-06,6.0566890692690406e-06,7.029230765643136e-06,3.3025603545233714e-06,3.003219242450599e-06,Unknown
0.07580769200000059,4.771897549592082e-06,3.3460468874503e-06,6.049396228080678e-06,7.026872470867228e-06,3.3103017038476617e-06,3.002854558371101e-06,Unknown
0.07632692299999988,4.780123742792618e-06,3.349699946797913e-06,6.028624650348657e-06,7.027002715935926e-06,3.3078352471168698e-06,3.0027898494851743e-06,Unknown
0.07684615400000006,4.784455770994175e-06,3.36241220969616e-06,6.001943945591798e-06,7.027112354868896e-06,3.308717625732814e-06,3.002175013576016e-06,Unknown
0.07736538500000023,4.7723908742511495e-06,3.3783713894410674e-06,5.975677289250067e-06,7.027865252646572e-06,3.31555327269831e-06,3.0014150213294737e-06,Unknown
0.07788461500000032,4.756591662267918e-06,3.390907717852879e-06,5.9493674633539534e-06,7.030514054481474e-06,3.3223045976460845e-06,3.00060053911308e-06,Unknown
0.0784038460000005,4.755028856757142e-06,3.39791053753894e-06,5.918133221398209e-06,7.040764185509632e-06,3.332241755833975e-06,2.99957978602475e-06,Unknown
0.07892307699999979,4.75332385053676e-06,3.39994851865834e-06,5.882369782114371e-06,7.067778648127543e-06,3.340228647143372e-06,2.9989084772663257e-06,Unknown
0.07944230799999996,4.760112541639249e-06,3.39973713396262e-06,5.853723614274708e-06,7.1170758607739e-06,3.330001125354745e-06,2.999038197181295e-06,Unknown
0.07996153800000005,4.783864453095325e-06,3.3994429179824305e-06,5.8389210382382445e-06,7.189402522242138e-06,3.3056130781887752e-06,3.00002290974928e-06,Unknown
0.08048076900000023,4.793724322604743e-06,3.399308259881481e-06,5.833047673460113e-06,7.283014240989396e-06,3.289972144078722e-06,2.9996120662450555e-06,Unknown
0.0810000000000004,4.785819534668853e-06,3.4018221345667805e-06,5.831117797995333e-06,7.395354419622654e-06,3.296843424591172e-06,2.994490413474146e-06,Unknown
0.08151923100000058,4.7823648693876485e-06,3.4020418050441238e-06,5.8323031455083e-06,7.520477229273826e-06,3.3198888181231404e-06,2.985854102823838e-06,Unknown
0.08203846199999987,4.783995899821546e-06,3.389598855557901e-06,5.83614248232327e-06,7.642471607015812e-06,3.3429750994607965e-06,2.980637854086654e-06,Unknown
0.08255769199999996,4.76927844619399e-06,3.372308304997593e-06,5.841251042913845e-06,7.74206106644131e-06,3.355145204451764e-06,2.984552219614004e-06,Unknown
0.08307692300000014,4.714169548542609e-06,3.366242760801937e-06,5.846441511210941e-06,7.817849628312056e-06,3.3505964946763566e-06,2.9925772806167515e-06,Unknown
0.08359615400000031,4.649405254333365e-06,3.380143525398699e-06,5.850755915889172e-06,7.889749713154115e-06,3.3279367879319942e-06,2.995916752115649e-06,Unknown
0.08411538500000049,4.622306854269608e-06,3.414443814485309e-06,5.855205150674017e-06,7.984465109633525e-06,3.301948511999854e-06,2.995741723577101e-06,Unknown
0.08463461500000058,4.614178132983661e-06,3.4524260522717856e-06,5.856652673800842e-06,8.114659117929758e-06,3.2925836703060185e-06,2.996373117197726e-06,Unknown
0.08515384599999987,4.621103021896113e-06,3.4808005409875392e-06,5.8484164642667e-06,8.255466701133483e-06,3.292584456830905e-06,3.001510797927378e-06,Unknown
0.08567307700000004,4.668155827871751e-06,3.5003996931928703e-06,5.838269002115388e-06,8.354970019535272e-06,3.291112928468199e-06,3.0146885382787232e-06,Unknown
0.08619230800000022,4.720868920866362e-06,3.514905054240448e-06,5.835898582903779e-06,8.380961984940313e-06,3.296328650385924e-06,3.028446692327078e-06,Unknown
0.08671153800000031,4.743604006753589e-06,3.537220058457245e-06,5.836460620056076e-06,8.376804956872151e-06,3.3065942865920244e-06,3.03310518765555e-06,Unknown
0.08723076900000049,4.75138428362234e-06,3.564323340382272e-06,5.837342182596108e-06,8.460100494975406e-06,3.310928103615233e-06,3.032866901912371e-06,Unknown
0.08774999999999977,4.756551274252106e-06,3.574699487971772e-06,5.83573383028445e-06,8.681781804379944e-06,3.306154882701931e-06,3.035588498608745e-06,Unknown
0.08826923099999995,4.766041587524252e-06,3.5721507734568365e-06,5.824809826845158e-06,8.930231136273601e-06,3.299855800416834e-06,3.0379767422696454e-06,Unknown
0.08878846200000012,4.77277022450973e-06,3.5715548991813902e-06,5.811080056939254e-06,9.08630568950318e-06,3.302146053141336e-06,3.033594411823901e-06,Unknown
0.08930769200000022,4.756048349586213e-06,3.570628488143228e-06,5.804909501127217e-06,9.15157653429545e-06,3.3112764738564186e-06,3.023730328457794e-06,Unknown
0.08982692300000039,4.73788361010927e-06,3.5685465523048096e-06,5.8046609849578185e-06,9.177826193771546e-06,3.3155954712755083e-06,3.0133622329275706e-06,Unknown
0.09034615400000057,4.742883750469616e-06,3.569448007914149e-06,5.804839854772054e-06,9.19786904267601e-06,3.3105675588153933e-06,3.0064585668874997e-06,Unknown
0.09086538499999985,4.762867922117214e-06,3.570728908400645e-06,5.804301779882292e-06,9.226996912461246e-06,3.302664190612556e-06,3.004147798464245e-06,Unknown
0.09138461499999995,4.7988235055243445e-06,3.5704828793441573e-06,5.8046883761784096e-06,9.26858676431771e-06,3.2978517788088224e-06,3.0039030130351743e-06,Unknown
0.09190384600000012,4.843493035799196e-06,3.566218313664095e-06,5.805904548373367e-06,9.313771562219404e-06,3.296356289041764e-06,3.0039533088393444e-06,Unknown
0.0924230770000003,4.867642378190907e-06,3.5523422668830404e-06,5.80844665342149e-06,9.344592552993174e-06,3.296283248872759e-06,3.0031392912161425e-06,Unknown
0.09294230800000047,4.869634759196194e-06,3.534949070071209e-06,5.811813272722523e-06,9.352516344478672e-06,3.2959660179765923e-06,3.0028019567967075e-06,Unknown
0.09346153800000057,4.866510218754102e-06,3.525804768528937e-06,5.816271956550313e-06,9.352485913565496e-06,3.2942934076464978e-06,3.0041110491843664e-06,Unknown
0.09398076899999985,4.860704362396818e-06,3.5259401706076125e-06,5.824552588937511e-06,9.355179485406924e-06,3.290133786324031e-06,2.9964015500653792e-06,Unknown
0.09450000000000003,4.85843045074642e-06,3.5321145693332425e-06,5.827907484441582e-06,9.355224404871448e-06,3.2815982101526228e-06,2.9729021024420624e-06,Unknown
0.0950192310000002,4.852251790077817e-06,3.5453460999939536e-06,5.820887281194615e-06,9.3550709706633e-06,3.270346408360414e-06,2.944208945736199e-06,Unknown
0.09553846200000038,4.835875404514653e-06,3.567855737808596e-06,5.817587781698313e-06,9.35601469222201e-06,3.263630687795468e-06,2.9229215654519465e-06,Unknown
0.09605769200000047,4.833807005361949e-06,3.5960400598655848e-06,5.8273998200338e-06,9.35422047328446e-06,3.2602425443693838e-06,2.9135225998685485e-06,Unknown
0.09657692299999976,4.840987823779021e-06,3.6235978723128857e-06,5.849803054383597e-06,9.355343764758004e-06,3.259320077834784e-06,2.9128894408411934e-06,Unknown
0.09709615399999993,4.83607272307267e-06,3.6484227335425215e-06,5.881082240548386e-06,9.360879459307642e-06,3.267323492834995e-06,2.91496853414695e-06,Unknown
0.09761538500000011,4.813622975683513e-06,3.668755693219134e-06,5.904471323024226e-06,9.363201687388534e-06,3.274153027210433e-06,2.916252311507785e-06,Unknown
0.0981346150000002,4.760855910634769e-06,3.681586709016147e-06,5.910104906217195e-06,9.35891949263148e-06,3.274163585780636e-06,2.916491111859721e-06,Unknown
0.09865384600000038,4.708292985168093e-06,3.6907477747883018e-06,5.910117140615332e-06,9.349987181829517e-06,3.2799446529096256e-06,2.9165532705874795e-06,Unknown
0.09917307700000055,4.69509817105235e-06,3.706115078614522e-06,5.912202284494391e-06,9.341177896966566e-06,3.287823534450168e-06,2.915074042902523e-06,Unknown
0.09969230799999984,4.69558804857692e-06,3.731789423661828e-06,5.913481995183469e-06,9.33639430430168e-06,3.2889609344949007e-06,2.9096343462435325e-06,Unknown
0.10021153799999993,4.697530710111147e-06,3.758477851535105e-06,5.91273495737132e-06,9.334658234127947e-06,3.288908069504828e-06,2.90288921473282e-06,Unknown
0.10073076900000011,4.702355958474642e-06,3.7705176877139434e-06,5.911119451750991e-06,9.3336299611876e-06,3.2893849940403948e-06,2.9007379116320297e-06,Unknown
0.10125000000000028,4.693109912789674e-06,3.7637017864269114e-06,5.911039292725051e-06,9.332789879722064e-06,3.289084421615773e-06,2.903935422460205e-06,Unknown
0.10176923100000046,4.686287821574746e-06,3.749017101082323e-06,5.908646450581687e-06,9.332841105383852e-06,3.2902220846242293e-06,2.907881302306788e-06,Unknown
0.10228846200000064,4.6855778704189095e-06,3.73777732025403e-06,5.898645508645727e-06,9.33436922040139e-06,3.2919312386036e-06,2.908394851768441e-06,Unknown
0.10280769199999984,4.663953529669e-06,3.732460978158791e-06,5.886952471472395e-06,9.336385583692872e-06,3.2918014557273585e-06,2.907931965437328e-06,Unknown
0.10332692300000001,4.638191326997949e-06,3.731218774382337e-06,5.880114846000145e-06,9.338088715388162e-06,3.2905936196142646e-06,2.9124091861272827e-06,Unknown
0.10384615400000019,4.634956705981231e-06,3.7332641864525775e-06,5.8737824586052034e-06,9.339832805249545e-06,3.2994161719355598e-06,2.916542332405984e-06,Unknown
0.10436538500000037,4.6485038013140165e-06,3.739714627566648e-06,5.859225463176477e-06,9.340933175981658e-06,3.3191520137466327e-06,2.9114086036561818e-06,Unknown
0.10488461500000046,4.67472128861813e-06,3.7525396601567264e-06,5.83353868135724e-06,9.340587075186122e-06,3.329073845643933e-06,2.903263241362745e-06,Unknown
0.10540384600000063,4.687459338708162e-06,3.773447379617802e-06,5.802282140825294e-06,9.344264569649104e-06,3.330507666595641e-06,2.899407360333963e-06,Unknown
0.10592307699999992,4.660041492950376e-06,3.800727044720295e-06,5.772431860984692e-06,9.36544205483082e-06,3.3303219475412848e-06,2.8982146832081194e-06,Unknown
0.1064423080000001,4.616865204437845e-06,3.826810258437659e-06,5.745243733390028e-06,9.40423444492916e-06,3.3186984606947466e-06,2.896899890931161e-06,Unknown
0.10696153800000019,4.59187731909115e-06,3.84550569589115e-06,5.7216337865092124e-06,9.435593703441156e-06,3.306018412110531e-06,2.8895719790214523e-06,Unknown
0.10748076900000036,4.609319624908473e-06,3.858671610072626e-06,5.709958523154384e-06,9.444203874084176e-06,3.303570986433629e-06,2.8747257408421417e-06,Unknown
0.10800000000000054,4.657102398362772e-06,3.873190208322953e-06,5.714399458534422e-06,9.44099103780143e-06,3.3049448562849813e-06,2.8556960414304414e-06,Unknown
0.10851923099999983,4.681750987347563e-06,3.896318868991949e-06,5.727090625616744e-06,9.437446030070098e-06,3.3067492999263663e-06,2.839854861113385e-06,Unknown
0.109038462,4.6782035764216486e-06,3.928037978851137e-06,5.737655695223062e-06,9.435055523906652e-06,3.308634416388302e-06,2.84008927808548e-06,Unknown
0.1095576920000001,4.6796796086131375e-06,3.9585137919460384e-06,5.742341161573391e-06,9.431488263681854e-06,3.3095437157389123e-06,2.86018592694104e-06,Unknown
0.11007692300000027,4.684326556250112e-06,3.979779472181536e-06,5.743151955046356e-06,9.425488992077707e-06,3.309830547646793e-06,2.900525528648159e-06,Unknown
0.11059615400000045,4.685516304913757e-06,3.992769086584104e-06,5.741294329879008e-06,9.4167437154468e-06,3.309691858415205e-06,2.9661011293619304e-06,Unknown
0.11111538500000062,4.6833159026118365e-06,4.001689002006183e-06,5.737749345163836e-06,9.406095611503116e-06,3.308797990856108e-06,3.036889505559316e-06,Unknown
0.11163461499999983,4.681145625378284e-06,4.007126067579643e-06,5.734020956123568e-06,9.401586561052008e-06,3.308097377860212e-06,3.0622564864434487e-06,Unknown
0.112153846,4.703729615187176e-06,4.007918093624e-06,5.7282630824797785e-06,9.411926387324563e-06,3.309992684463199e-06,3.0674332041238123e-06,Unknown
0.11267307700000018,4.741659144224469e-06,4.006805059715725e-06,5.714022721884068e-06,9.426899540939408e-06,3.3138902769630244e-06,3.1733305604975773e-06,Unknown
0.11319230800000035,4.757426218762065e-06,4.00646151937705e-06,5.68359638355756e-06,9.430152365922592e-06,3.314183486789797e-06,3.3639895155376377e-06,Unknown
0.11371153800000044,4.762470321534574e-06,4.006920380268223e-06,5.642401419732279e-06,9.432286855085425e-06,3.3047646639702563e-06,3.491792042653677e-06,Unknown
0.11423076900000062,4.774763651712818e-06,4.009685141737438e-06,5.611734280362232e-06,9.447438628077549e-06,3.2878413726067994e-06,3.523102985989973e-06,Unknown
0.11474999999999991,4.779588969184974e-06,4.019616668585492e-06,5.599506488114801e-06,9.459557602116248e-06,3.27380512233455e-06,3.51946450303139e-06,Unknown
0.11526923100000008,4.786540826278196e-06,4.037884370159157e-06,5.592874476126288e-06,9.455952908861756e-06,3.2663501833481238e-06,3.5189155706912757e-06,Unknown
0.11578846200000026,4.81565042214722e-06,4.059223979375975e-06,5.579190979900957e-06,9.447864593164355e-06,3.2639877438601587e-06,3.52521261064568e-06,Unknown
0.11630769200000035,4.858728686911318e-06,4.080992755427713e-06,5.54947382092115e-06,9.44343336038423e-06,3.264707111328536e-06,3.524777657959106e-06,Unknown
0.11682692300000053,4.90458975814868e-06,4.103268555893764e-06,5.508745283871507e-06,9.440269748724725e-06,3.262831705319559e-06,3.516840530931425e-06,Unknown
0.11734615399999981,4.94698261939079e-06,4.120596895204916e-06,5.475806729199875e-06,9.43470524236659e-06,3.2627860567521497e-06,3.5137174238186782e-06,Unknown
0.11786538499999999,4.976437060450653e-06,4.1252636144309226e-06,5.456974810729325e-06,9.426560043438078e-06,3.260776698252212e-06,3.513875509992182e-06,Unknown
0.11838461500000008,4.994841215838322e-06,4.119056573646103e-06,5.446998675270933e-06,9.418953477704807e-06,3.2432656237299305e-06,3.515105769999986e-06,Unknown
0.11890384600000026,5.019242298712288e-06,4.106422817208718e-06,5.442127813782176e-06,9.413847811408717e-06,3.2260870290653517e-06,3.5202617988721603e-06,Unknown
0.11942307700000043,5.07146207303347e-06,4.094549667174043e-06,5.440611206299077e-06,9.410922685527544e-06,3.2225649739997265e-06,3.523845099574024e-06,Unknown
0.11994230800000061,5.16472637178853e-06,4.093889247309987e-06,5.4404111521375804e-06,9.408654495955966e-06,3.222581655170167e-06,3.523064916244395e-06,Unknown
0.12046153799999981,5.257476339409609e-06,4.09778227417731e-06,5.440162899693993e-06,9.407563904089629e-06,3.223283415606581e-06,3.523363928021114e-06,Unknown
0.12098076899999999,5.29863286353675e-06,4.09401877785084e-06,5.43838094187096e-06,9.40756294458239e-06,3.225450708122593e-06,3.525351072822625e-06,Unknown
0.12150000000000016,5.306157557455932e-06,4.08592952923968e-06,5.434824013789385e-06,9.409229670302546e-06,3.226084076316052e-06,3.5251827126639897e-06,Unknown
0.12201923100000034,5.307103042572753e-06,4.083246445708611e-06,5.433667574439163e-06,9.428056263786726e-06,3.2262560291024118e-06,3.5255926880863287e-06,Unknown
0.12253846200000051,5.316689690810778e-06,4.086989594902474e-06,5.434795536236032e-06,9.48181793177762e-06,3.2277584569509308e-06,3.529440587183567e-06,Unknown
0.1230576920000006,5.345357878909685e-06,4.089376991996514e-06,5.436979432429738e-06,9.555972906916982e-06,3.234495840346995e-06,3.53314000607676e-06,Unknown
0.1235769229999999,5.356417486958634e-06,4.08852893065362e-06,5.442030752021706e-06,9.612366407643254e-06,3.252391959570756e-06,3.534481967160577e-06,Unknown
0.12409615400000007,5.33671427517678e-06,4.0913281493317104e-06,5.443799549562634e-06,9.633176177079633e-06,3.273059771180153e-06,3.5295297359810584e-06,Unknown
0.12461538500000024,5.330928490014674e-06,4.103583920170277e-06,5.437282902847595e-06,9.63170939988611e-06,3.283054546359294e-06,3.5185249551859096e-06,Unknown
0.12513461500000034,5.361283220887023e-06,4.119301118278244e-06,5.42904573213954e-06,9.626044523929354e-06,3.284820048893272e-06,3.514541067833486e-06,Unknown
0.1256538460000005,5.423856389207459e-06,4.127234448479181e-06,5.422012470697571e-06,9.623086128860468e-06,3.2853830519036304e-06,3.52339027625001e-06,Unknown
0.1261730769999998,5.507151284200991e-06,4.128232967553926e-06,5.417371130478629e-06,9.622931519156004e-06,3.2866076693126523e-06,3.539483491033728e-06,Unknown
0.12669230799999998,5.597831130332389e-06,4.128107628129771e-06,5.419490739630303e-06,9.624454934985543e-06,3.2850339239481897e-06,3.557724874805188e-06,Unknown
0.12721153800000007,5.710262915008411e-06,4.128937804574894e-06,5.424565603919749e-06,9.627261332722216e-06,3.2745614162495628e-06,3.571332655732096e-06,Unknown
0.12773076900000024,5.834733211510711e-06,4.133669505782093e-06,5.426109431945191e-06,9.630837024302031e-06,3.2709834532333314e-06,3.575094334382558e-06,Unknown
0.12825000000000042,5.9224881297417375e-06,4.1391744865105365e-06,5.423530891895076e-06,9.634226625328498e-06,3.289951046179501e-06,3.5738515604597524e-06,Unknown
0.1287692310000006,5.967140623863228e-06,4.137853077107749e-06,5.4197702627479785e-06,9.638565887744096e-06,3.306203309119783e-06,3.576741588864884e-06,Unknown
0.12928846199999988,5.989465182034272e-06,4.135412471299971e-06,5.417237286095511e-06,9.64557861371701e-06,3.306123806875401e-06,3.581802662714874e-06,Unknown
0.12980769199999997,6.015042268455158e-06,4.136641126431507e-06,5.415436510182175e-06,9.655521788371238e-06,3.305531508174675e-06,3.582024429541549e-06,Unknown
0.13032692300000015,6.084581586126555e-06,4.134783275900815e-06,5.411772887509828e-06,9.671638032086988e-06,3.3070051585892344e-06,3.580971262286602e-06,Unknown
0.13084615400000033,6.2021412645528695e-06,4.132230435633039e-06,5.405443600169876e-06,9.706373737443564e-06,3.307901828868404e-06,3.585508392737484e-06,Unknown
0.1313653850000005,6.360120831052643e-06,4.132308404514545e-06,5.400639755068476e-06,9.781085301502026e-06,3.305730050177281e-06,3.5940832613498223e-06,Unknown
0.1318846150000006,6.553581609397713e-06,4.132450209046233e-06,5.402133436767242e-06,9.905957454998566e-06,3.3020026882010178e-06,3.600142193018109e-06,Unknown
0.13240384599999988,6.724218978564143e-06,4.140177934092736e-06,5.407458727992307e-06,1.006051159464302e-05,3.301917329273299e-06,3.602779257277571e-06,Unknown
0.13292307700000006,6.818403058870208e-06,4.158690411359929e-06,5.411928042779817e-06,1.0211355180982828e-05,3.301919487774283e-06,3.604846374265231e-06,Unknown
0.13344230800000023,6.853564373379121e-06,4.1786073481425125e-06,5.415350281016554e-06,1.0343438026274027e-05,3.303937914049012e-06,3.6052028186613206e-06,Unknown
0.13396153800000032,6.869294418169938e-06,4.198085720528696e-06,5.419400240152627e-06,1.0463835249071546e-05,3.3088755093554466e-06,3.608340963639375e-06,Unknown
0.1344807690000005,6.884633112641362e-06,4.222395956146476e-06,5.423093680707113e-06,1.058217290692899e-05,3.308889314266045e-06,3.6209818627693657e-06,Unknown
0.1349999999999998,6.893996354338235e-06,4.254928628236709e-06,5.421249220928321e-06,1.06884326058325e-05,3.2966593026132918e-06,3.639601752635453e-06,Unknown
0.13551923099999996,6.8715911088307554e-06,4.291475178603875e-06,5.415582743327323e-06,1.0750221747380744e-05,3.2638413325450085e-06,3.6587649398520127e-06,Unknown
0.13603846200000014,6.847536071983659e-06,4.323894615464853e-06,5.41372568265555e-06,1.0759636580699796e-05,3.219513860560301e-06,3.667318290789565e-06,Unknown
0.13655769200000023,6.879864650324241e-06,4.353247634693314e-06,5.415070637617158e-06,1.0765353566033416e-05,3.189285506084156e-06,3.651740019911434e-06,Unknown
0.1370769230000004,6.938806625979018e-06,4.386125703223257e-06,5.41601233038146e-06,1.0802084370412513e-05,3.1780556932701106e-06,3.625627050353892e-06,Unknown
0.13759615400000058,6.982526483899546e-06,4.427340373873209e-06,5.416593966169525e-06,1.0847370566888267e-05,3.172927392699311e-06,3.616115697217232e-06,Unknown
0.13811538499999987,7.013291260377007e-06,4.47762092150893e-06,5.4176412758514455e-06,1.0883394461793035e-05,3.164566323407264e-06,3.6245370417619135e-06,Unknown
0.13863461499999996,7.046024879523632e-06,4.528425869345882e-06,5.418587742231974e-06,1.0926788376966344e-05,3.140544047430193e-06,3.637366743036679e-06,Unknown
0.13915384600000014,7.121098042629475e-06,4.56801453888352e-06,5.4160700846657095e-06,1.1022006775420974e-05,3.102194648453228e-06,3.649840169810536e-06,Unknown
0.1396730770000003,7.237669136199147e-06,4.5935385865380185e-06,5.410261052156035e-06,1.122927020133508e-05,3.0867852698152896e-06,3.6628114626608354e-06,Unknown
0.1401923080000005,7.332945236251468e-06,4.608330754555903e-06,5.410623833874748e-06,1.1560757869716156e-05,3.104206182097944e-06,3.6739530921973184e-06,Unknown
0.14071153800000058,7.385498733062494e-06,4.617175166048008e-06,5.420115865068342e-06,1.1934699636226798e-05,3.104387763393185e-06,3.678146905306114e-06,Unknown
0.14123076899999987,7.416038560790968e-06,4.625716953260967e-06,5.425427480358343e-06,1.2233494975154984e-05,3.0801770933662414e-06,3.67600160808852e-06,Unknown
0.14175000000000004,7.434696584678448e-06,4.635308582323695e-06,5.420970687540051e-06,1.239886151723155e-05,3.0727115803181167e-06,3.6725762092123543e-06,Unknown
0.14226923100000022,7.45222049417053e-06,4.644160998530033e-06,5.415055195623624e-06,1.2458280591613634e-05,3.076118084921701e-06,3.670446450170727e-06,Unknown
0.1427884620000004,7.465201455500001e-06,4.651322705201034e-06,5.413166547994385e-06,1.2471986297702848e-05,3.076269174226433e-06,3.6695989967282863e-06,Unknown
0.1433076920000005,7.459282311262469e-06,4.6543936036935705e-06,5.416628717587886e-06,1.247503775678839e-05,3.081428592066313e-06,3.669150528048965e-06,Unknown
0.14382692299999977,7.451217847170236e-06,4.650669798686076e-06,5.4165584515048605e-06,1.247559503553441e-05,3.073741992990257e-06,3.668806264755115e-06,Unknown
0.14434615399999995,7.459019650379399e-06,4.645454998538845e-06,5.405898766777123e-06,1.2476375456963892e-05,3.046346893140913e-06,3.669404048417744e-06,Unknown
0.14486538500000012,7.467938704783085e-06,4.648962746163674e-06,5.39686296142941e-06,1.2478057353063758e-05,3.022929568794429e-06,3.671626653538216e-06,Unknown
0.14538461500000022,7.469163522634673e-06,4.659351857437122e-06,5.395791358627204e-06,1.2479919296940582e-05,3.013155682176644e-06,3.671091428618144e-06,Unknown
0.1459038460000004,7.468449039857528e-06,4.667214797682748e-06,5.39584584179824e-06,1.2481475716753934e-05,3.0110923986874185e-06,3.6613772672786777e-06,Unknown
0.14642307700000057,7.460901303672034e-06,4.672378913996678e-06,5.3963405309022194e-06,1.2482370967774682e-05,3.01020395926516e-06,3.647845748800109e-06,Unknown
0.14694230799999985,7.454418425392277e-06,4.679928685187488e-06,5.398326565440873e-06,1.2482806361422484e-05,3.0038680613578937e-06,3.6427955924207206e-06,Unknown
0.14746153799999995,7.459332637115561e-06,4.695022352493471e-06,5.402733584619568e-06,1.2481100268343426e-05,2.9929069183369367e-06,3.6446532904210056e-06,Unknown
0.14798076900000012,7.460681922725355e-06,4.726793018697074e-06,5.41413571545346e-06,1.2476900344153894e-05,2.9842042160489973e-06,3.639997662807387e-06,Unknown
0.1485000000000003,7.457717207261839e-06,4.778031784792867e-06,5.4331501221018846e-06,1.2474784946033847e-05,2.9731190534701693e-06,3.6263116097618993e-06,Unknown
0.14901923100000047,7.459969054785819e-06,4.836314301550183e-06,5.459223313959603e-06,1.2476123326719068e-05,2.958781255592057e-06,3.6148779552079128e-06,Unknown
0.14953846199999976,7.463748797709183e-06,4.890899856872692e-06,5.48947720959488e-06,1.2478810700080489e-05,2.9535365128504106e-06,3.611941219073888e-06,Unknown
0.15005769199999985,7.465280397073284e-06,4.945178235979469e-06,5.514361721630074e-06,1.2484120682682068e-05,2.951396399233348e-06,3.612636972027124e-06,Unknown
0.15057692300000003,7.460942651527209e-06,5.00767614394857e-06,5.529835879364893e-06,1.2490507536076926e-05,2.949951608874739e-06,3.609954466018709e-06,Unknown
0.1510961540000002,7.465415770928215e-06,5.076831130093255e-06,5.54045559933383e-06,1.249336785793983e-05,2.956394092504867e-06,3.6011715896239995e-06,Unknown
0.15161538500000038,7.4899327060810915e-06,5.1377581176231416e-06,5.55408835669701e-06,1.249305883670175e-05,2.9551230471718945e-06,3.590613474451348e-06,Unknown
0.15213461500000047,7.506821536129912e-06,5.180639814325695e-06,5.572871037362151e-06,1.2491472754698002e-05,2.9454131219653044e-06,3.585585968304874e-06,Unknown
0.15265384599999976,7.505993692171741e-06,5.211445968168567e-06,5.589693803423505e-06,1.2489615920861958e-05,2.942779969933613e-06,3.5883970854900256e-06,Unknown
0.15317307699999994,7.50763141560551e-06,5.23992307794296e-06,5.600144164688232e-06,1.2490913499036964e-05,2.943818930377533e-06,3.596136439307808e-06,Unknown
0.1536923080000001,7.508257038180108e-06,5.268398008814707e-06,5.602456424800727e-06,1.2495779415663568e-05,2.9458540717114344e-06,3.601503940771235e-06,Unknown
0.1542115380000002,7.505085922410126e-06,5.291526459958623e-06,5.59689600426744e-06,1.2499875439240336e-05,2.9512264187983994e-06,3.6016058939844243e-06,Unknown
0.15473076900000038,7.505267510561239e-06,5.3063812787223656e-06,5.590414975361144e-06,1.250278999888119e-05,2.955973330336813e-06,3.607053334409447e-06,Unknown
0.15525000000000055,7.503828380983987e-06,5.317535110299652e-06,5.587605940471963e-06,1.2507443799208557e-05,2.9574976113216967e-06,3.625627149371692e-06,Unknown
0.15576923099999984,7.516431093612319e-06,5.331171241942824e-06,5.586660835044031e-06,1.2514988028214253e-05,2.9574862090955905e-06,3.647659846391548e-06,Unknown
0.15628846200000002,7.5434460173548145e-06,5.348264373710912e-06,5.586324588723974e-06,1.2527610236288009e-05,2.958638061452004e-06,3.657273517899408e-06,Unknown
0.1568076920000001,7.550990316745566e-06,5.360408731941694e-06,5.5837316312280845e-06,1.2545185845703582e-05,2.961308228840585e-06,3.6487784557573495e-06,Unknown
0.15732692300000028,7.543219556224379e-06,5.362159910573325e-06,5.577404710871744e-06,1.256168681176185e-05,2.9630252195969896e-06,3.6342627825463294e-06,Unknown
0.15784615400000046,7.542274279203466e-06,5.360573386134704e-06,5.574854001833894e-06,1.2575718718711232e-05,2.962507494986574e-06,3.6311882979142737e-06,Unknown
0.15836538500000064,7.541719003182919e-06,5.362189564310405e-06,5.581090610541392e-06,1.259118221731658e-05,2.9628012258783058e-06,3.634849066676723e-06,Unknown
0.15888461499999984,7.539677089490903e-06,5.364837873895901e-06,5.59539356428842e-06,1.2607296900403397e-05,2.963726326473585e-06,3.6292271133202423e-06,Unknown
0.15940384600000002,7.543322073161387e-06,5.366508345607329e-06,5.622103346689964e-06,1.2621468072827608e-05,2.957667797621415e-06,3.623138580084396e-06,Unknown
0.1599230770000002,7.54334221296412e-06,5.372695439386236e-06,5.667442723910969e-06,1.2630993171369264e-05,2.948559682870625e-06,3.636730583799437e-06,Unknown
0.16044230800000037,7.536293835442915e-06,5.38670185435244e-06,5.724050442514327e-06,1.2632331161003764e-05,2.9562547594297543e-06,3.6574416599564594e-06,Unknown
0.16096153800000046,7.530996008392839e-06,5.399466078394973e-06,5.770157822989287e-06,1.2628681293574772e-05,2.9787453678799286e-06,3.660183991310743e-06,Unknown
0.16148076900000063,7.528867773862984e-06,5.4043181421721485e-06,5.7938741157177824e-06,1.2627445234251392e-05,2.991258336551477e-06,3.669877299585923e-06,Unknown
0.16199999999999992,7.53149086831998e-06,5.406300916538036e-06,5.802606345876108e-06,1.2629114922083574e-05,2.9921340238648604e-06,3.721739669635667e-06,Unknown
0.1625192310000001,7.532749746410127e-06,5.411655445006249e-06,5.8082085053575e-06,1.2627897413730544e-05,2.993164121214058e-06,3.7822597836285663e-06,Unknown
0.16303846200000027,7.528618400719854e-06,5.424673617859456e-06,5.820116024161364e-06,1.262031143836586e-05,2.9850980029834224e-06,3.8116688542771726e-06,Unknown
0.16355769200000037,7.530978031637098e-06,5.443056230428004e-06,5.84148195732519e-06,1.2609323830591764e-05,2.9551307070929208e-06,3.820675364069259e-06,Unknown
0.16407692300000054,7.533105446843547e-06,5.458932128469776e-06,5.860074098544268e-06,1.2600434183276478e-05,2.914413452415331e-06,3.825760194635558e-06,Unknown
0.16459615399999983,7.53003766349815e-06,5.468578317078884e-06,5.860831953801779e-06,1.2594965207298324e-05,2.8832585655747757e-06,3.8292730809368494e-06,Unknown
0.165115385,7.531319500127554e-06,5.473388404497616e-06,5.846232992522027e-06,1.2590472300303596e-05,2.864417446525993e-06,3.827349515469773e-06,Unknown
0.1656346150000001,7.530710407056897e-06,5.478188979491031e-06,5.826578911575545e-06,1.2584116193170584e-05,2.8564192154069835e-06,3.840349285594776e-06,Unknown
0.16615384600000027,7.528902355170167e-06,5.485193545518684e-06,5.80680374212619e-06,1.2573883850501803e-05,2.8555448265430296e-06,3.878979924535833e-06,Unknown
0.16667307700000045,7.532266289621809e-06,5.492384003155583e-06,5.788274697304478e-06,1.2563303246308982e-05,2.857465997817088e-06,3.896744042445569e-06,Unknown
0.16719230800000062,7.541643730736732e-06,5.49868068853812e-06,5.770340911743457e-06,1.2558182036081796e-05,2.863230958062856e-06,3.894276168475247e-06,Unknown
0.16771153799999983,7.577566813797792e-06,5.5021083275878346e-06,5.759461693968293e-06,1.255758235350308e-05,2.8602322881344605e-06,3.894447570819179e-06,Unknown
0.168230769,7.639821824425618e-06,5.500776611621547e-06,5.763223066296006e-06,1.2557415973890506e-05,2.8566749960867883e-06,3.863178655628889e-06,Unknown
0.16875000000000018,7.68688161125752e-06,5.496291051322378e-06,5.775351958968786e-06,1.2555742200051104e-05,2.853749922475894e-06,3.8130713871730336e-06,Unknown
0.16926923100000035,7.703181646482717e-06,5.4912568726697e-06,5.7875751602373445e-06,1.255303761657872e-05,2.825539398163265e-06,3.7828232390905526e-06,Unknown
0.16978846200000053,7.704207265214865e-06,5.488680918525005e-06,5.798400478205819e-06,1.25528411187731e-05,2.7950408557273192e-06,3.785901627245224e-06,Unknown
0.17030769200000062,7.70165666908997e-06,5.493386085611577e-06,5.8079740800252375e-06,1.2554982549901789e-05,2.790575857244002e-06,3.826582174337762e-06,Unknown
0.1708269229999999,7.701796190503404e-06,5.507860345444889e-06,5.816070540163005e-06,1.2550974618632452e-05,2.794965144478376e-06,3.854263240820836e-06,Unknown
0.17134615400000008,7.69906294496882e-06,5.528352180829907e-06,5.819826425383684e-06,1.2540076117660952e-05,2.799164599511013e-06,3.843194705933023e-06,Unknown
0.17186538500000026,7.693057996170428e-06,5.550854696140164e-06,5.81619356141905e-06,1.2538497075413976e-05,2.809996357960021e-06,3.83142854560594e-06,Unknown
0.17238461500000035,7.693913119327731e-06,5.575033905066868e-06,5.806974140728615e-06,1.2563614907357452e-05,2.8121830371824044e-06,3.830429575753612e-06,Unknown
0.17290384600000053,7.695147724090022e-06,5.59952952991259e-06,5.798575492180671e-06,1.2621831982950266e-05,2.796071820848063e-06,3.830361451019947e-06,Unknown
0.17342307699999981,7.689938303687822e-06,5.6182029427344e-06,5.7933544452438745e-06,1.2702076555976314e-05,2.785806711288634e-06,3.830517684921792e-06,Unknown
0.173942308,7.686542948577422e-06,5.626091429608961e-06,5.787109357991433e-06,1.2775922207046077e-05,2.788279102321876e-06,3.830906345538541e-06,Unknown
0.17446153800000008,7.686527687458458e-06,5.627080835021543e-06,5.7751604331157895e-06,1.282038329291988e-05,2.788695358096628e-06,3.83893169854586e-06,Unknown
0.17498076900000026,7.686528376345451e-06,5.627137226414397e-06,5.755215318154695e-06,1.2835426751711224e-05,2.7873694938932203e-06,3.860683296188674e-06,Unknown
0.17550000000000043,7.685975115585974e-06,5.627788402395084e-06,5.735153148307617e-06,1.283503799581508e-05,2.787371693358629e-06,3.8861267697904325e-06,Unknown
0.1760192310000006,7.674705767931842e-06,5.62909090733407e-06,5.724863956089033e-06,1.2833710389132502e-05,2.7859991672256184e-06,3.903874359913898e-06,Unknown
0.1765384619999999,7.654841457602718e-06,5.630403690007221e-06,5.72161870392534e-06,1.2838236908777413e-05,2.781783793456251e-06,3.918405761619698e-06,Unknown
0.177057692,7.648090690931829e-06,5.63092035624645e-06,5.717804889381154e-06,1.2844841175188143e-05,2.77321700311068e-06,3.950169226899328e-06,Unknown
0.17757692300000016,7.650599151551755e-06,5.63143066196748e-06,5.707899091844059e-06,1.284826252914926e-05,2.7645456029038947e-06,4.006721649022725e-06,Unknown
0.17809615400000034,7.65113025109146e-06,5.634072243564462e-06,5.689642853954505e-06,1.2848078683139944e-05,2.7644805508021503e-06,4.05410420057541e-06,Unknown
0.17861538500000051,7.647982223536697e-06,5.638591642127436e-06,5.667413916530328e-06,1.2843809391502372e-05,2.770694641924299e-06,4.072712285376615e-06,Unknown
0.1791346150000006,7.631798098857127e-06,5.641659393101504e-06,5.65053370789215e-06,1.28370097790407e-05,2.7755245595501007e-06,4.083187832442698e-06,Unknown
0.1796538459999999,7.622745491785872e-06,5.64197542251102e-06,5.647660289795442e-06,1.283346831493926e-05,2.777013332277396e-06,4.116141945603079e-06,Unknown
0.18017307700000007,7.640606872051506e-06,5.642484160878904e-06,5.659367404406184e-06,1.283522976863045e-05,2.775678314627367e-06,4.212870722497153e-06,Unknown
0.18069230800000025,7.660559280485169e-06,5.646602551462655e-06,5.678111016954231e-06,1.2839531524554685e-05,2.7771100628619703e-06,4.334657196512583e-06,Unknown
0.18121153800000034,7.670727432683753e-06,5.651539921053825e-06,5.697228370403651e-06,1.2842948016193649e-05,2.780477378779622e-06,4.390638001528254e-06,Unknown
0.1817307690000005,7.676360105708364e-06,5.652461565625851e-06,5.71350354002773e-06,1.2844373080735296e-05,2.776981473564846e-06,4.39179962683046e-06,Unknown
0.1822499999999998,7.677178110539654e-06,5.653432046127847e-06,5.724297482602443e-06,1.284620951981827e-05,2.770263268382485e-06,4.38597631392653e-06,Unknown
0.18276923099999998,7.678502008719818e-06,5.661705360410277e-06,5.725164140835168e-06,1.2846090727765475e-05,2.7676539253349103e-06,4.403359245037723e-06,Unknown
0.18328846200000015,7.669498621180346e-06,5.6773787802171205e-06,5.712535771841481e-06,1.2833618414579716e-05,2.7674388454485147e-06,4.441705905163651e-06,Unknown
0.18380769200000024,7.642130163126428e-06,5.697071684200301e-06,5.695644289473933e-06,1.2798579463960283e-05,2.7686080551585927e-06,4.4409352299177804e-06,Unknown
0.18432692300000042,7.615612753330723e-06,5.7148029071245405e-06,5.692018435099038e-06,1.2734270022331038e-05,2.7718916316142297e-06,4.524485125820977e-06,Unknown
0.1848461540000006,7.604102177648303e-06,5.716955046687406e-06,5.701392197376622e-06,1.263780617612103e-05,2.772237889994855e-06,4.840389703976449e-06,Unknown
0.18536538499999988,7.60285067602395e-06,5.701826752964396e-06,5.704759740084897e-06,1.2521815008586145e-05,2.7689664918247058e-06,5.151961857586348e-06,Unknown
0.18588461499999998,7.602749739597983e-06,5.686701573327698e-06,5.679970194425879e-06,1.2425427768749297e-05,2.7665729765696887e-06,5.251132438794593e-06,Unknown
0.18640384600000015,7.604038361914538e-06,5.680006135797032e-06,5.6046462976220206e-06,1.2386090746977464e-05,2.770915294943477e-06,5.250763805394669e-06,Unknown
0.18692307700000033,7.608063659244971e-06,5.67814696703065e-06,5.487441994846948e-06,1.2392380971070892e-05,2.777782155247426e-06,5.28889626250615e-06,Unknown
0.1874423080000005,7.609670795440511e-06,5.6739106182698674e-06,5.3764478014010125e-06,1.2400992665570204e-05,2.7768517026850086e-06,5.387741175980177e-06,Unknown
0.1879615380000006,7.608676903715074e-06,5.665372449397895e-06,5.298467772151882e-06,1.2395358553335066e-05,2.802596954298763e-06,5.559068672307408e-06,Unknown
0.18848076899999988,7.614424625159188e-06,5.659551390356183e-06,5.238343105027276e-06,1.2387398423846515e-05,2.8617865490968083e-06,5.783716604081005e-06,Unknown
0.18900000000000006,7.632926021459174e-06,5.658065443749364e-06,5.164633364420223e-06,1.2384311017716046e-05,2.885150723269456e-06,5.900051090563529e-06,Unknown
0.18951923100000023,7.643490887175295e-06,5.656549938992495e-06,5.05003741244518e-06,1.2383939468998208e-05,2.8824360248160654e-06,5.908524477411608e-06,Unknown
0.1900384620000004,7.632368862109533e-06,5.6488642800921e-06,4.9116156502276015e-06,1.2385728658302787e-05,2.9282851105907068e-06,6.400079643412565e-06,Unknown
0.1905576920000005,7.623097933489889e-06,5.635883034898606e-06,4.814091014444496e-06,1.2396019683286855e-05,3.0039314863378885e-06,7.515149966582032e-06,Unknown
0.1910769229999998,7.623035426561692e-06,5.628291361195734e-06,4.796067658737475e-06,1.2415344814838824e-05,3.0548093763986845e-06,8.396772501371503e-06,Unknown
0.19159615399999996,7.624178587420635e-06,5.628276475465074e-06,4.826581750750839e-06,1.242054428806645e-05,3.077102922094546e-06,8.65056280064364e-06,Unknown
0.19211538500000014,7.625602040609079e-06,5.629291569944712e-06,4.854932908647678e-06,1.2394987719100532e-05,3.089193165376468e-06,8.652630564023915e-06,Unknown
0.19263461500000023,7.618529561813207e-06,5.628637824540392e-06,4.863740700721538e-06,1.2363601572816158e-05,3.0986787141215447e-06,8.685119632017689e-06,Unknown
0.1931538460000004,7.614517835561935e-06,5.627377343040432e-06,4.862268866412723e-06,1.2360658130150577e-05,3.101115060671058e-06,8.704807802186973e-06,Unknown
0.19367307700000058,7.63049959699155e-06,5.62541044360376e-06,4.854019264805287e-06,1.2402725990309537e-05,3.101766395444539e-06,8.701189821134046e-06,Unknown
0.19419230799999987,7.654303513710968e-06,5.619898305432152e-06,4.829221670223962e-06,1.2476417047841794e-05,3.108116089125145e-06,8.70241532368489e-06,Unknown
0.19471153799999996,7.672440303242407e-06,5.610263766990471e-06,4.782180111391776e-06,1.2526966687423254e-05,3.1132460447522867e-06,8.70419759257776e-06,Unknown
0.19523076900000014,7.68013520054584e-06,5.598642958757417e-06,4.721667118469725e-06,1.2515185991761754e-05,3.1115077616387347e-06,8.702927351773345e-06,Unknown
0.1957500000000003,7.681793365135682e-06,5.584608684365976e-06,4.662607509914448e-06,1.2433881767960076e-05,3.1099715581768086e-06,8.702360345329943e-06,Unknown
0.1962692310000005,7.696807952792888e-06,5.565072047173657e-06,4.606977451886729e-06,1.2281805466116356e-05,3.109716398929586e-06,8.710647696242058e-06,Unknown
0.19678846199999978,7.747685092375956e-06,5.540383873073872e-06,4.543361369871798e-06,1.2111517144807578e-05,3.103378492750444e-06,8.736669270157238e-06,Unknown
0.19730769199999987,7.835975353922149e-06,5.519158931030262e-06,4.468732048664431e-06,1.2004044266364724e-05,3.092995103445797e-06,8.782351484062363e-06,Unknown
0.19782692300000004,7.925950687312171e-06,5.512019245506844e-06,4.399957273679562e-06,1.1970596912840456e-05,3.0855816033771143e-06,8.830228504260144e-06,Unknown
0.19834615400000022,7.9809973406641e-06,5.523496452798774e-06,4.359729452570006e-06,1.1970744339380834e-05,3.081187803717065e-06,8.849267966874282e-06,Unknown
0.1988653850000004,8.004002026266775e-06,5.553171974673837e-06,4.3476371659943164e-06,1.197717082459944e-05,3.078156729527442e-06,8.848246608489504e-06,Unknown
0.1993846150000005,8.01367471027046e-06,5.60109809614583e-06,4.343599367088412e-06,1.1982975435810612e-05,3.078465207911913e-06,8.887198486353672e-06,Unknown
0.19990384599999977,8.01718259593355e-06,5.669234136115199e-06,4.3355781589615774e-06,1.1988337133930998e-05,3.08203838258959e-06,8.968526258673879e-06,Unknown
0.20042307699999995,8.020450116378492e-06,5.753381956883956e-06,4.321169647923014e-06,1.1994417865160175e-05,3.085733944689927e-06,9.01100591105654e-06,Unknown
0.20094230800000012,8.027127780110846e-06,5.833761958717625e-06,4.307708560911136e-06,1.200122638043369e-05,3.08766035964651e-06,9.01101619302336e-06,Unknown
0.20146153800000022,8.028204548584025e-06,5.884636741368275e-06,4.303533221445992e-06,1.200726952454381e-05,3.087645607461884e-06,9.06035338210642e-06,Unknown
0.2019807690000004,8.02403633315124e-06,5.899439060689157e-06,4.303734038331505e-06,1.2011995697748158e-05,3.086613096563621e-06,9.155653863622908e-06,Unknown
0.20250000000000057,8.043632619790807e-06,5.894660154455936e-06,4.302944118990573e-06,1.2016641337456196e-05,3.087397883022444e-06,9.209349396155884e-06,Unknown
0.20301923099999986,8.093284410430013e-06,5.8872615162502e-06,4.3006081175242165e-06,1.2022112882044016e-05,3.097340816750304e-06,9.215663651366493e-06,Unknown
0.20353846200000003,8.135827380500937e-06,5.882788351563123e-06,4.301076087851203e-06,1.2026081204371857e-05,3.1194332414220112e-06,9.216103700607098e-06,Unknown
0.20405769200000012,8.155311841913316e-06,5.8815158072291645e-06,4.314038278770886e-06,1.2021301769218282e-05,3.135798258885834e-06,9.216827892475055e-06,Unknown
0.2045769230000003,8.155623289193677e-06,5.884177468033852e-06,4.340620517863716e-06,1.1999655809797164e-05,3.1341059096023327e-06,9.217200374619923e-06,Unknown
0.20509615400000047,8.142622512346227e-06,5.901985039242234e-06,4.366480155579636e-06,1.1958779569730583e-05,3.1355026845944696e-06,9.220391618496092e-06,Unknown
0.20561538499999976,8.139271931183074e-06,5.956005148901478e-06,4.38181681194404e-06,1.190158299574795e-05,3.144990406984139e-06,9.223906721263116e-06,Unknown
0.20613461499999985,8.146289230863946e-06,6.039753245399081e-06,4.3934720535724525e-06,1.183088863018e-05,3.136057586371573e-06,9.226456761432731e-06,Unknown
0.20665384600000003,8.147490660980546e-06,6.113306816680856e-06,4.412242944111311e-06,1.175044359207445e-05,3.105418399028496e-06,9.2289490464808e-06,Unknown
0.2071730770000002,8.14654766688979e-06,6.1561237054671e-06,4.439518685899019e-06,1.167071410289068e-05,3.0713558692117687e-06,9.231716907949926e-06,Unknown
0.20769230800000038,8.146958411748835e-06,6.180303802497568e-06,4.456551498018252e-06,1.160468723869663e-05,3.04714658133715e-06,9.232267181132196e-06,Unknown
0.20821153800000047,8.156703946223212e-06,6.200646242996861e-06,4.4554475228104165e-06,1.1553721397257956e-05,3.039700921849311e-06,9.229993564820304e-06,Unknown
0.20873076899999976,8.182005450830258e-06,6.218100638475231e-06,4.449756057350093e-06,1.1504728101855771e-05,3.0480116480809338e-06,9.22886831149767e-06,Unknown
0.20924999999999994,8.206779335890437e-06,6.220882892775787e-06,4.443941461151671e-06,1.143948385443459e-05,3.0669858861176066e-06,9.229944810708612e-06,Unknown
0.2097692310000001,8.222950179514936e-06,6.208458329634785e-06,4.437875945566256e-06,1.134825639371862e-05,3.0959534150850618e-06,9.230709829290584e-06,Unknown
0.2102884620000003,8.2239055436331e-06,6.1949631850300686e-06,4.43129286710117e-06,1.1247270712614535e-05,3.1346671216124657e-06,9.229036008515543e-06,Unknown
0.21080769200000038,8.196596425386398e-06,6.185676818036679e-06,4.4257497063446335e-06,1.1174849147636897e-05,3.167570594766569e-06,9.22403872208927e-06,Unknown
0.21132692300000055,8.1602258128891e-06,6.177365041095102e-06,4.424140296797312e-06,1.1155339118034204e-05,3.181744749437773e-06,9.218817870162151e-06,Unknown
0.21184615399999984,8.144634233319479e-06,6.168160234424239e-06,4.425548071448635e-06,1.1154934124669808e-05,3.187835105893844e-06,9.217070028019924e-06,Unknown
0.21236538500000002,8.149359606399613e-06,6.1621068365048194e-06,4.429840470526783e-06,1.1086304549895892e-05,3.201122666725142e-06,9.217168168990786e-06,Unknown
0.2128846150000001,8.16182149044838e-06,6.163516140015409e-06,4.438709500752403e-06,1.0908918098856211e-05,3.22040071748336e-06,9.21619356251158e-06,Unknown
0.21340384600000029,8.167417871619485e-06,6.167468494573107e-06,4.451801314909335e-06,1.0703280754588564e-05,3.2335504119193044e-06,9.214663876573462e-06,Unknown
0.21392307700000046,8.160499509718181e-06,6.1693435481185325e-06,4.4644475735093045e-06,1.0568605152385143e-05,3.235406109015889e-06,9.2140022391377e-06,Unknown
0.21444230799999975,8.161405400194148e-06,6.170892688092701e-06,4.472934371153612e-06,1.0509772258996164e-05,3.23199782874042e-06,9.214403593524966e-06,Unknown
0.21496153799999984,8.171160793965252e-06,6.175589977463498e-06,4.480359499972621e-06,1.0483885641535965e-05,3.232299395150772e-06,9.215691340145271e-06,Unknown
0.21548076900000002,8.169237487875095e-06,6.191273414256899e-06,4.4936033804136295e-06,1.046331033155099e-05,3.2356170858020144e-06,9.217006839280766e-06,Unknown
0.2160000000000002,8.157023308415038e-06,6.223434826656443e-06,4.512181780284415e-06,1.0436998511372787e-05,3.2368806989560867e-06,9.217945372221397e-06,Unknown
0.21651923100000037,8.133111785489216e-06,6.262260187744231e-06,4.527437596804348e-06,1.0403940563560834e-05,3.2368740166323025e-06,9.219324287527349e-06,Unknown
0.21703846200000054,8.107597399718016e-06,6.291459386737096e-06,4.533596110869148e-06,1.0374030027082313e-05,3.2370175455641355e-06,9.221353737925487e-06,Unknown
0.21755769200000064,8.11792102618521e-06,6.3053640695177e-06,4.532041145780023e-06,1.036520956450903e-05,3.237360325001224e-06,9.223663735395028e-06,Unknown
0.21807692299999992,8.152092856249622e-06,6.308466672700062e-06,4.527152670582357e-06,1.0381728394400164e-05,3.2378237532579925e-06,9.22488655877854e-06,Unknown
0.2185961540000001,8.171093543143167e-06,6.30633227492261e-06,4.520780024268737e-06,1.040178212003452e-05,3.235481060484194e-06,9.224297275587784e-06,Unknown
0.21911538500000027,8.175300247437294e-06,6.3013638027068135e-06,4.510569510000649e-06,1.0411489055406158e-05,3.227528901649235e-06,9.224309032640849e-06,Unknown
0.21963461500000037,8.171377062950238e-06,6.292768493543992e-06,4.495673144408046e-06,1.0417917673922156e-05,3.223348513641856e-06,9.225586732576406e-06,Unknown
0.22015384600000054,8.169940862870031e-06,6.280264983206345e-06,4.480903806456181e-06,1.0422132558176092e-05,3.232863058637294e-06,9.225944870117378e-06,Unknown
0.22067307699999983,8.182198689170896e-06,6.266175966309907e-06,4.468338195477795e-06,1.0423375395778444e-05,3.245256032562619e-06,9.225964155021267e-06,Unknown
0.221192308,8.191018812066063e-06,6.250699046698146e-06,4.45222012296997e-06,1.042359536694465e-05,3.252201772676277e-06,9.227968151815234e-06,Unknown
0.2217115380000001,8.190827316575064e-06,6.232711688989767e-06,4.423137128243135e-06,1.0425545463503918e-05,3.253963864280793e-06,9.232436798862636e-06,Unknown
0.22223076900000027,8.192165533842864e-06,6.21698656187368e-06,4.381524614093548e-06,1.0444356786507118e-05,3.246456951268515e-06,9.238899165038987e-06,Unknown
0.22275000000000045,8.191304410847766e-06,6.207097676817933e-06,4.350037684249792e-06,1.0481093575526104e-05,3.2401170573226357e-06,9.24708671406387e-06,Unknown
0.22326923100000062,8.191816949124887e-06,6.198575916831991e-06,4.343765900658882e-06,1.0509910739478826e-05,3.2412518932854845e-06,9.256052004370104e-06,Unknown
0.2237884619999999,8.19770618206916e-06,6.191355358578762e-06,4.3463313704437736e-06,1.0519855880211886e-05,3.2367176363589165e-06,9.26375756942591e-06,Unknown
0.224307692,8.201382607375024e-06,6.19178829769411e-06,4.344105534423091e-06,1.0521250755765053e-05,3.2287643396686616e-06,9.269306936831824e-06,Unknown
0.22482692300000018,8.2028926071324e-06,6.196741501515133e-06,4.343032998754088e-06,1.0522833333568944e-05,3.2269649605429597e-06,9.27408176299694e-06,Unknown
0.22534615400000035,8.201822024352284e-06,6.19733327278261e-06,4.34974571042073e-06,1.0530727406469952e-05,3.226895458807796e-06,9.27959211171889e-06,Unknown
0.22586538500000053,8.203610906071889e-06,6.195026973342587e-06,4.363573106001315e-06,1.0541105113599727e-05,3.2263733734153337e-06,9.28468560730788e-06,Unknown
0.22638461500000062,8.219011413921461e-06,6.195348265003174e-06,4.3779488313477365e-06,1.0544226997083278e-05,3.228136267263718e-06,9.287004632310202e-06,Unknown
0.2269038459999999,8.237388572171751e-06,6.197595940924415e-06,4.387607813923382e-06,1.0543562649849814e-05,3.23734656380355e-06,9.287409062443645e-06,Unknown
0.22742307700000008,8.247007790136518e-06,6.201632182654518e-06,4.393815147403797e-06,1.0545233576926824e-05,3.257513288406281e-06,9.288577699070516e-06,Unknown
0.22794230800000026,8.252281540754413e-06,6.209146325404382e-06,4.400992696635634e-06,1.0546247545681592e-05,3.2748027851588985e-06,9.292462500149974e-06,Unknown
0.22846153800000035,8.261714718626523e-06,6.216814913923853e-06,4.414807739155833e-06,1.05447866094859e-05,3.277708675275496e-06,9.2977027422344e-06,Unknown
0.22898076900000053,8.283870945720151e-06,6.220550764769412e-06,4.430781539593495e-06,1.0542846031470328e-05,3.2682784248683216e-06,9.30075174574831e-06,Unknown
0.22949999999999982,8.310705786085488e-06,6.220015773714465e-06,4.4347710056502215e-06,1.054184691818625e-05,3.25589633064848e-06,9.301716180683906e-06,Unknown
0.230019231,8.319842772882475e-06,6.215645391889271e-06,4.428212489397868e-06,1.0543975873855776e-05,3.262678589977037e-06,9.302022507689924e-06,Unknown
0.23053846200000017,8.313448550963745e-06,6.206728537370213e-06,4.419364993891711e-06,1.0547026343201418e-05,3.287803119515093e-06,9.302295050076571e-06,Unknown
0.23105769200000026,8.309026808094684e-06,6.194592977988566e-06,4.4041970053303455e-06,1.053722834631318e-05,3.305936532859665e-06,9.302682959178936e-06,Unknown
0.23157692300000043,8.308830786437243e-06,6.1869162027538e-06,4.38247387435966e-06,1.0508898835333742e-05,3.3128179127186906e-06,9.302565188550602e-06,Unknown
0.2320961540000006,8.311491056313012e-06,6.192778498748413e-06,4.362462171121716e-06,1.0481634640154851e-05,3.3186206291704604e-06,9.302944042774295e-06,Unknown
0.2326153849999999,8.307395816926368e-06,6.210865874072624e-06,4.346315609542051e-06,1.0470947027860662e-05,3.333421097951209e-06,9.304483741559533e-06,Unknown
0.233134615,8.28936017923427e-06,6.228437501535957e-06,4.330059774624925e-06,1.046973073138064e-05,3.359706319740866e-06,9.307357512859113e-06,Unknown
0.23365384600000016,8.276428306934263e-06,6.234191472955106e-06,4.3125611053484e-06,1.046922202878976e-05,3.381185865384676e-06,9.310107849443273e-06,Unknown
0.23417307700000034,8.275833147626372e-06,6.22958349762057e-06,4.299924536542879e-06,1.0470631401426846e-05,3.3885766531829e-06,9.308479434302388e-06,Unknown
0.23469230800000052,8.272597446771134e-06,6.226233083091832e-06,4.295758166301899e-06,1.04807481301012e-05,3.391180350597592e-06,9.300978644540923e-06,Unknown
0.2352115380000006,8.268357497420215e-06,6.230499431572008e-06,4.2940806442422775e-06,1.0495825524308812e-05,3.4003709493299e-06,9.287790089537847e-06,Unknown
0.2357307689999999,8.271768238055662e-06,6.237416778097683e-06,4.291384412263621e-06,1.0502967861801913e-05,3.433003706687014e-06,9.2676396981483e-06,Unknown
0.23625000000000007,8.27760072826325e-06,6.241668006876923e-06,4.2893739364058205e-06,1.0505364256324216e-05,3.490477436160597e-06,9.246063885317884e-06,Unknown
0.23676923100000025,8.276150622782113e-06,6.244463982921714e-06,4.284479924892213e-06,1.050789369385439e-05,3.5371552875365546e-06,9.239270765805048e-06,Unknown
0.23728846200000042,8.265779095779513e-06,6.248813799803925e-06,4.280879446029441e-06,1.0501230696190409e-05,3.550631340242553e-06,9.239570726966273e-06,Unknown
0.23780769200000051,8.259356295097716e-06,6.2540886916026645e-06,4.297368747156898e-06,1.0489853186065748e-05,3.5484505780138105e-06,9.20616490742444e-06,Unknown
0.2383269229999998,8.27321752828426e-06,6.2582670264568086e-06,4.335930243028582e-06,1.0486876185629936e-05,3.546418923075675e-06,9.140583019619242e-06,Unknown
0.23884615399999998,8.308161230832988e-06,6.259961786484856e-06,4.379682590711473e-06,1.0487195843428078e-05,3.544692049079167e-06,9.094014986315026e-06,Unknown
0.23936538500000015,8.35377461465381e-06,6.258232708288353e-06,4.422269129815192e-06,1.0482436363435144e-05,3.5412259765818213e-06,9.081647187099708e-06,Unknown
0.23988461500000025,8.40225966855812e-06,6.254126032802707e-06,4.479087804217258e-06,1.0476189370722106e-05,3.5371425612722314e-06,9.08242508501735e-06,Unknown
0.24040384600000042,8.452724888140292e-06,6.253873485609622e-06,4.5700712635141966e-06,1.0473294208426455e-05,3.536616188590232e-06,9.084429214646433e-06,Unknown
0.2409230770000006,8.51281541135082e-06,6.261612203730995e-06,4.682639768861256e-06,1.0472955387154343e-05,3.5365842465563227e-06,9.08491291564563e-06,Unknown
0.24144230799999988,8.582589018547045e-06,6.269467716746477e-06,4.7775984670619175e-06,1.0471875354059837e-05,3.5327171161740423e-06,9.085920145102584e-06,Unknown
0.24196153799999998,8.637147037922283e-06,6.270165319029235e-06,4.836279459241937e-06,1.0467946091187008e-05,3.5385468341857123e-06,9.09032193920926e-06,Unknown
0.24248076900000015,8.652737098705519e-06,6.269064020893839e-06,4.87031655768519e-06,1.046369651634186e-05,3.57268796828746e-06,9.09702094436468e-06,Unknown
0.24300000000000033,8.641355912642702e-06,6.274806960237148e-06,4.895933024300071e-06,1.0463998247140398e-05,3.624332389384146e-06,9.102820312125724e-06,Unknown
0.2435192310000005,8.627789966855458e-06,6.285964509626275e-06,4.917261371480693e-06,1.0467989513964409e-05,3.667061821538603e-06,9.104493307871096e-06,Unknown
0.2440384619999998,8.61678881454088e-06,6.296555909636949e-06,4.930462550995353e-06,1.0471008441237155e-05,3.695798470269181e-06,9.102766209083994e-06,Unknown
0.24455769199999988,8.597732831974372e-06,6.301975928379179e-06,4.934779062045885e-06,1.04720209361223e-05,3.722599634324499e-06,9.101194917461176e-06,Unknown
0.24507692300000006,8.551050993801963e-06,6.298695669460493e-06,4.934904632094922e-06,1.0473383157689892e-05,3.7618556421859087e-06,9.10074066733392e-06,Unknown
0.24559615400000023,8.492628388191199e-06,6.292582799376566e-06,4.935663078896273e-06,1.0476887075127012e-05,3.8164834673571295e-06,9.100468876613777e-06,Unknown
0.2461153850000004,8.468225125139787e-06,6.290900340117183e-06,4.938103308575529e-06,1.0483047675866443e-05,3.865932255368491e-06,9.099532901908906e-06,Unknown
0.2466346150000005,8.47121165714903e-06,6.291610854592714e-06,4.94153021433566e-06,1.048845023607842e-05,3.889491342594386e-06,9.097668275329474e-06,Unknown
0.2471538459999998,8.473195755875534e-06,6.291281196093844e-06,4.94678049309879e-06,1.0476669245298262e-05,3.891988597732385e-06,9.09548247088267e-06,Unknown
0.24767307699999996,8.467382399289948e-06,6.2899930025378e-06,4.955646387031631e-06,1.043057194459769e-05,3.891779992713331e-06,9.093612021791278e-06,Unknown
0.24819230800000014,8.451937563281076e-06,6.289748594389244e-06,4.967752982999517e-06,1.0363054117228476e-05,3.895378309616534e-06,9.09233744595922e-06,Unknown
0.24871153800000023,8.456346462191466e-06,6.291703986991632e-06,4.983237437186921e-06,1.0309022216722273e-05,3.897870542774114e-06,9.091811284968906e-06,Unknown
0.2492307690000004,8.50481150351319e-06,6.293153671286835e-06,5.010638511430454e-06,1.0285007092022637e-05,3.9037523694031895e-06,9.091817721685711e-06,Unknown
0.24975000000000058,8.55592492463984e-06,6.289620283885581e-06,5.054241890136747e-06,1.0280813484833211e-05,3.918940276085735e-06,9.091370572151674e-06,Unknown
0.25026923099999987,8.565041129620699e-06,6.285093015301127e-06,5.100503100260673e-06,1.0282275679294564e-05,3.935206676497984e-06,9.089632683905866e-06,Unknown
0.25078846200000005,8.535584544432529e-06,6.290242346668288e-06,5.135530937698616e-06,1.0282931215373196e-05,3.946544580092396e-06,9.086660061642106e-06,Unknown
0.25130769200000014,8.483903722593728e-06,6.308755238370951e-06,5.152999256344916e-06,1.0281436862169214e-05,3.954394540951065e-06,9.082011955670448e-06,Unknown
0.2518269230000003,8.415058142703193e-06,6.3350883134193296e-06,5.15352393285842e-06,1.0279066490775513e-05,3.960448883576088e-06,9.07517459526221e-06,Unknown
0.2523461540000005,8.333737062889868e-06,6.356432155103282e-06,5.14789489550301e-06,1.0278454974834692e-05,3.962765198966905e-06,9.069947143374815e-06,Unknown
0.2528653849999998,8.259216561526324e-06,6.362429849766636e-06,5.14726014437622e-06,1.028055087802557e-05,3.95370279960756e-06,9.070196087393255e-06,Unknown
0.25338461499999987,8.2123633298696e-06,6.35943208002719e-06,5.159394156530477e-06,1.028237183093032e-05,3.934096113295122e-06,9.072747864254591e-06,Unknown
0.25390384600000004,8.187124334021306e-06,6.359144580396042e-06,5.189264650781038e-06,1.0279760285901558e-05,3.920349175541208e-06,9.073573105501488e-06,Unknown
0.2544230770000002,8.167987858921505e-06,6.359810245763623e-06,5.2316521373965314e-06,1.0272848595987448e-05,3.918540007279292e-06,9.074170253294068e-06,Unknown
0.2549423080000004,8.144940255912253e-06,6.357329786031426e-06,5.270118165079619e-06,1.0263683477616503e-05,3.9184389805012055e-06,9.077701697520274e-06,Unknown
0.2554615380000005,8.093046224775984e-06,6.35569776789049e-06,5.290551445922657e-06,1.0250915401405812e-05,3.922774700163492e-06,9.082204926115684e-06,Unknown
0.2559807689999998,8.001914535287903e-06,6.35568047820751e-06,5.293803060761117e-06,1.0224701394267596e-05,3.934083385461137e-06,9.083532111143982e-06,Unknown
0.25649999999999995,7.880103315156088e-06,6.3561871251232645e-06,5.288665797330446e-06,1.01601175454188e-05,3.939812847767601e-06,9.082320557985587e-06,Unknown
0.2570192310000001,7.72783194705433e-06,6.358719551339143e-06,5.2794515387137474e-06,1.0039382078017362e-05,3.937259206763209e-06,9.082277444535366e-06,Unknown
0.2575384620000003,7.5821374982964125e-06,6.360412530101724e-06,5.27318089434925e-06,9.880005834320176e-06,3.934600238131786e-06,9.085118491176755e-06,Unknown
0.2580576920000004,7.4975508798383985e-06,6.35761450803647e-06,5.277442049189414e-06,9.717490022702667e-06,3.936259202367382e-06,9.089004464985204e-06,Unknown
0.25857692300000057,7.465654904186762e-06,6.35227020998916e-06,5.284842281491322e-06,9.571258011640758e-06,3.944482799502202e-06,9.090725399827362e-06,Unknown
0.25909615399999986,7.460104590028408e-06,6.347326205831967e-06,5.2854719635514935e-06,9.436874834926476e-06,3.961836678385708e-06,9.088528983726615e-06,Unknown
0.25961538500000003,7.467584572751711e-06,6.3435163464340495e-06,5.282534769931744e-06,9.30504926804352e-06,3.983166395495223e-06,9.082970062808385e-06,Unknown
0.2601346150000001,7.463775758811661e-06,6.34073239711446e-06,5.281899645412233e-06,9.189134250606855e-06,4.000007048959819e-06,9.075573199901872e-06,Unknown
0.2606538460000003,7.46021180765664e-06,6.336290608997379e-06,5.2814251240875485e-06,9.127738505932996e-06,4.014066671353346e-06,9.067944916653837e-06,Unknown
0.2611730770000005,7.460296294163669e-06,6.32454000241239e-06,5.28148107869109e-06,9.127485648851518e-06,4.027711140804749e-06,9.06262155473339e-06,Unknown
0.26169230799999976,7.429113523901615e-06,6.305185754271824e-06,5.295120014326149e-06,9.12763398363228e-06,4.041812301579479e-06,9.062615146192208e-06,Unknown
0.26221153799999986,7.383571163667229e-06,6.28275627905251e-06,5.328028046710354e-06,9.08598852497485e-06,4.05999586538207e-06,9.06736081176116e-06,Unknown
0.26273076900000003,7.35472541681391e-06,6.25602516303842e-06,5.362836251214066e-06,9.029911541201029e-06,4.078676961809548e-06,9.071548297865291e-06,Unknown
0.2632500000000002,7.327744722030644e-06,6.222314365165083e-06,5.382964694220561e-06,8.98316509832372e-06,4.093950125631314e-06,9.070928751509969e-06,Unknown
0.2637692310000004,7.278211430872158e-06,6.186914857674962e-06,5.389442755089231e-06,8.926071752622236e-06,4.109022928808416e-06,9.066777093576412e-06,Unknown
0.26428846200000056,7.191981930442573e-06,6.15859841854595e-06,5.390631139827708e-06,8.801455240913504e-06,4.127207952651357e-06,9.062001015435492e-06,Unknown
0.26480769199999976,7.0883877193480736e-06,6.140638392695944e-06,5.393718540364156e-06,8.526995139043644e-06,4.141390342336604e-06,9.057796363509264e-06,Unknown
0.26532692299999994,7.012591797720628e-06,6.131083861790064e-06,5.403973425027923e-06,8.065079587574873e-06,4.13944885327768e-06,9.057673524119924e-06,Unknown
0.2658461540000001,6.977448181774602e-06,6.1286261149165326e-06,5.423478166768187e-06,7.496659303462804e-06,4.131637842711252e-06,9.062553389457504e-06,Unknown
0.2663653850000003,6.960529159752202e-06,6.1342549477129765e-06,5.447897313636344e-06,6.995450036687752e-06,4.130901322641144e-06,9.066804176949831e-06,Unknown
0.2668846150000004,6.9457449109342425e-06,6.1464506038029305e-06,5.466324213452758e-06,6.69237123721414e-06,4.128914559013638e-06,9.067858508807658e-06,Unknown
0.26740384600000056,6.932438590473024e-06,6.157420178059668e-06,5.472741045610186e-06,6.573337099808758e-06,4.126708305238499e-06,9.06784191143824e-06,Unknown
0.26792307699999984,6.92704734557714e-06,6.1597847753390455e-06,5.4699181021231016e-06,6.5441485529310346e-06,4.127465115559944e-06,9.06807335446469e-06,Unknown
0.268442308,6.932219306699174e-06,6.155671109496115e-06,5.457982757216973e-06,6.5390598699910444e-06,4.12230848923135e-06,9.06873520887669e-06,Unknown
0.2689615380000001,6.934985098128809e-06,6.153097055201332e-06,5.441412205485217e-06,6.536900956381733e-06,4.117079330461046e-06,9.06957978334262e-06,Unknown
0.2694807690000003,6.9264705037063e-06,6.1546454890043365e-06,5.430322672469988e-06,6.5340212752514754e-06,4.123676279443289e-06,9.069527368159515e-06,Unknown
0.27000000000000046,6.918369976243194e-06,6.155445061710822e-06,5.426202379460903e-06,6.531224731666845e-06,4.143813490151478e-06,9.068259613133088e-06,Unknown
0.27051923099999975,6.917943687127141e-06,6.153336380380195e-06,5.42516409453012e-06,6.530103759985846e-06,4.170069420922082e-06,9.069557885262112e-06,Unknown
0.2710384619999999,6.92289450572348e-06,6.155374327283364e-06,5.425271264530307e-06,6.529350516506397e-06,4.18770541164898e-06,9.078286332712955e-06,Unknown
0.271557692,6.932370226439963e-06,6.168529844389126e-06,5.425504313067627e-06,6.527692226152342e-06,4.191108428248291e-06,9.090509602520795e-06,Unknown
0.2720769230000002,6.930565906099801e-06,6.187954043257796e-06,5.4234984764024e-06,6.5276442602919935e-06,4.190622674805202e-06,9.09686491811189e-06,Unknown
0.27259615400000037,6.920543290361168e-06,6.200147044933959e-06,5.417437137304767e-06,6.529186698470411e-06,4.1956996440614974e-06,9.09710668554216e-06,Unknown
0.27311538500000054,6.933075930413456e-06,6.193191386823523e-06,5.4072210686676494e-06,6.5342283552908005e-06,4.207210779474958e-06,9.096806091590674e-06,Unknown
0.27363461499999975,6.950656833275486e-06,6.166014648589738e-06,5.3915418452411495e-06,6.546065235538113e-06,4.224438552543976e-06,9.096886206663106e-06,Unknown
0.2741538459999999,6.946371578726672e-06,6.1295127939018975e-06,5.368840998525666e-06,6.556610878349009e-06,4.233464904379102e-06,9.09695569542847e-06,Unknown
0.2746730770000001,6.9391011217585565e-06,6.0914828861915455e-06,5.343868454579888e-06,6.556161467901078e-06,4.224818986392329e-06,9.097534362077408e-06,Unknown
0.2751923080000003,6.937959439190757e-06,6.048254864443636e-06,5.326218796593537e-06,6.545128510406847e-06,4.220388949558567e-06,9.097830590370526e-06,Unknown
0.27571153800000037,6.93962144981479e-06,5.9954683212146096e-06,5.317706220531217e-06,6.53262682142097e-06,4.222609800500362e-06,9.096984304412044e-06,Unknown
0.27623076900000054,6.93483707780222e-06,5.939529740146162e-06,5.310967228543175e-06,6.527866466755775e-06,4.2176507634015145e-06,9.09554066211344e-06,Unknown
0.27674999999999983,6.909716229662616e-06,5.893344327213538e-06,5.298416522435917e-06,6.528750689507303e-06,4.2179870619478295e-06,9.094570490552944e-06,Unknown
0.277269231,6.890907543748151e-06,5.860210911450421e-06,5.279820996838903e-06,6.52949281238949e-06,4.219232111784588e-06,9.09418376202088e-06,Unknown
0.2777884620000002,6.897358361322745e-06,5.833491408155406e-06,5.262418077680362e-06,6.529361227517014e-06,4.212103152970951e-06,9.093689074550796e-06,Unknown
0.2783076920000003,6.902231665918165e-06,5.808131177227804e-06,5.251713914061343e-06,6.525828773425674e-06,4.210554295473423e-06,9.09293420628062e-06,Unknown
0.27882692300000045,6.89930688598103e-06,5.783736145333427e-06,5.247721080026707e-06,6.517620331732449e-06,4.213971265069339e-06,9.093951069501914e-06,Unknown
0.2793461540000006,6.898523020572023e-06,5.764056168795186e-06,5.247455405881556e-06,6.50886262609566e-06,4.212586559138502e-06,9.097571054360011e-06,Unknown
0.2798653849999999,6.898807683692894e-06,5.750502061591524e-06,5.247550194236909e-06,6.501388354530898e-06,4.208313655737704e-06,9.099450326082734e-06,Unknown
0.280384615,6.8965186168003205e-06,5.741093445969907e-06,5.248248771089581e-06,6.49307885990477e-06,4.2071395360520495e-06,9.096135539893024e-06,Unknown
0.2809038460000002,6.8824280690923135e-06,5.736367266983335e-06,5.253618565629905e-06,6.480065828823234e-06,4.2114901812537e-06,9.090659001682104e-06,Unknown
0.28142307700000035,6.874926487658966e-06,5.7332439339708535e-06,5.263050558131783e-06,6.455492139908588e-06,4.217707948054668e-06,9.088287999280914e-06,Unknown
0.28194230800000053,6.917667172317128e-06,5.72692917738388e-06,5.269925046493823e-06,6.414002552235093e-06,4.22582274826778e-06,9.089778968161209e-06,Unknown
0.2824615380000006,7.002703757141113e-06,5.723241997818351e-06,5.270382692635116e-06,6.363854705164514e-06,4.235956172933331e-06,9.089855546194467e-06,Unknown
0.2829807689999999,7.072408095843236e-06,5.725426115895147e-06,5.264071445043778e-06,6.32197772304977e-06,4.244668157686967e-06,9.08436089673589e-06,Unknown
0.2835000000000001,7.106930295085371e-06,5.726077870481589e-06,5.251081680670193e-06,6.292660526221703e-06,4.257257319802112e-06,9.07765645052582e-06,Unknown
0.28401923100000026,7.129943474893647e-06,5.722894617894566e-06,5.228806042809583e-06,6.268856063150839e-06,4.286859288976214e-06,9.075892301616996e-06,Unknown
0.28453846200000044,7.168956300380285e-06,5.717460336156485e-06,5.191795667215684e-06,6.247915179789685e-06,4.341584005603283e-06,9.07526766375996e-06,Unknown
0.28505769200000053,7.24326877266821e-06,5.714174600261119e-06,5.136634204599678e-06,6.233974112242275e-06,4.396042621654702e-06,9.06810215230038e-06,Unknown
0.2855769229999998,7.312631961678246e-06,5.71796606132277e-06,5.071311868509513e-06,6.231250560148874e-06,4.416980546421399e-06,9.059485295951153e-06,Unknown
0.286096154,7.332765629777471e-06,5.725134094042945e-06,5.021062315378114e-06,6.2377490354554425e-06,4.413174528921615e-06,9.058763949410864e-06,Unknown
0.28661538500000017,7.332986344644011e-06,5.7310499040860285e-06,5.003908392742029e-06,6.246552177209875e-06,4.413986101383743e-06,9.054437822497327e-06,Unknown
0.28713461500000026,7.3305696764508065e-06,5.735380867410174e-06,5.006595155852362e-06,6.252972666846799e-06,4.428548865473135e-06,9.03428412945344e-06,Unknown
0.28765384600000043,7.329457995578549e-06,5.738019174878294e-06,5.005794019077087e-06,6.2570531452640925e-06,4.443690684712279e-06,9.01647531411167e-06,Unknown
0.2881730770000006,7.344765684896532e-06,5.73577537591579e-06,4.9915774934050674e-06,6.260592907131022e-06,4.450733559418367e-06,9.013926802692912e-06,Unknown
0.2886923079999999,7.35223502760525e-06,5.730233916648799e-06,4.965050759781104e-06,6.264951797482146e-06,4.452848217692255e-06,9.01435215268437e-06,Unknown
0.289211538,7.348595648266678e-06,5.732024404411211e-06,4.944264784042915e-06,6.270487079038117e-06,4.451179345487665e-06,9.01218328412434e-06,Unknown
0.28973076900000017,7.362051953317114e-06,5.751449691066024e-06,4.95435690620526e-06,6.276654638114856e-06,4.447639279965448e-06,9.010082425005384e-06,Unknown
0.29025000000000034,7.385059798552212e-06,5.787244783277833e-06,4.988931411621647e-06,6.28245977846501e-06,4.448134967810806e-06,9.010050382871129e-06,Unknown
0.2907692310000005,7.400629785004057e-06,5.820290769231289e-06,5.018872574386171e-06,6.287767803746489e-06,4.448929287192988e-06,9.00519076660721e-06,Unknown
0.2912884619999998,7.409909919496106e-06,5.834274530198498e-06,5.03157618905365e-06,6.293718119702616e-06,4.449969750545701e-06,8.989452728326065e-06,Unknown
0.2918076919999999,7.416082580118482e-06,5.833433690235866e-06,5.033082561559859e-06,6.297704352886104e-06,4.457609094467859e-06,8.97977235738529e-06,Unknown
0.29232692300000007,7.410467507891553e-06,5.829080038927322e-06,5.033101694360578e-06,6.29525245095717e-06,4.463124255794894e-06,8.980279692327667e-06,Unknown
0.29284615400000025,7.374813103035225e-06,5.830256047939652e-06,5.030561665280431e-06,6.288340731784877e-06,4.463822163848311e-06,8.980986538118462e-06,Unknown
0.2933653850000004,7.31380701082045e-06,5.838113781651141e-06,5.0203860626636925e-06,6.281256518322587e-06,4.46467940736451e-06,8.981027019035642e-06,Unknown
0.2938846150000005,7.263765298360698e-06,5.843007170888802e-06,5.010054753988235e-06,6.274027314936725e-06,4.464855888043984e-06,8.973740088791778e-06,Unknown
0.2944038459999998,7.245938891235367e-06,5.843121856760524e-06,5.008240794935169e-06,6.264690015677414e-06,4.465329659596815e-06,8.971219124274531e-06,Unknown
0.294923077,7.244522199712508e-06,5.843645736033279e-06,5.01387136898621e-06,6.254870686929159e-06,4.465474366009021e-06,8.973833664837648e-06,Unknown
0.29544230800000015,7.245367033679657e-06,5.839251386224647e-06,5.0184623556408645e-06,6.250216378918595e-06,4.468137290239786e-06,8.945829015235449e-06,Unknown
0.29596153800000025,7.245810110765933e-06,5.825283040560253e-06,5.013475974785343e-06,6.251151710012075e-06,4.47544393660939e-06,8.899739955759434e-06,Unknown
0.2964807690000004,7.2477124842982175e-06,5.805567343642101e-06,5.004621736677908e-06,6.247235344924912e-06,4.480995216972023e-06,8.877077856304855e-06,Unknown
0.2970000000000006,7.267997093733651e-06,5.784403815003732e-06,5.002209843328349e-06,6.221482050224704e-06,4.476471557400639e-06,8.874388417224233e-06,Unknown
0.2975192309999999,7.304942824930148e-06,5.765669632532568e-06,5.002467949300599e-06,6.152929609842365e-06,4.463149892772006e-06,8.874573720974588e-06,Unknown
0.29803846200000006,7.3342521746248e-06,5.75345942781792e-06,5.003180271135593e-06,6.0228598087945096e-06,4.451924142832469e-06,8.874572829204394e-06,Unknown
0.29855769200000015,7.353475834412237e-06,5.751965448678195e-06,5.009042700584033e-06,5.839307281531947e-06,4.445707322129751e-06,8.874790178191745e-06,Unknown
0.2990769230000003,7.378258488266035e-06,5.7623916568793255e-06,5.017265969003574e-06,5.65226010790443e-06,4.444219283817473e-06,8.87511128071924e-06,Unknown
0.2995961540000005,7.435543324050812e-06,5.780176274765198e-06,5.019990498933885e-06,5.516111401294489e-06,4.452537571822647e-06,8.871423723982676e-06,Unknown
0.3001153849999998,7.530622275810384e-06,5.800551431404843e-06,5.013089843950439e-06,5.44479791848868e-06,4.464628206392388e-06,8.861920808981033e-06,Sat
0.3006346149999999,7.61469689014069e-06,5.825740744962834e-06,5.003801933232104e-06,5.418969206401008e-06,4.470657553720826e-06,8.854687943281607e-06,Sat
0.30115384600000006,7.66082757659243e-06,5.867936959339528e-06,5.005043536288349e-06,5.4097017540499845e-06,4.471831888070442e-06,8.85552598376912e-06,Sat
0.30167307700000023,7.690108461115343e-06,5.944838733818655e-06,5.017128249315734e-06,5.398984627137175e-06,4.472483112154e-06,8.857657954078248e-06,Sat
0.3021923080000004,7.724623453737876e-06,6.066330628569963e-06,5.029116528381169e-06,5.38912041951167e-06,4.480581847351187e-06,8.848060275462702e-06,Sat
0.3027115380000005,7.78591111214675e-06,6.225986492345231e-06,5.034536104491301e-06,5.387091641342483e-06,4.496781528292206e-06,8.82358940936244e-06,Sat
0.3032307689999998,7.866690134529438e-06,6.409364238959685e-06,5.0353727236343256e-06,5.392417733814977e-06,4.50873818075184e-06,8.80149692915793e-06,Sat
0.30374999999999996,7.93083898790664e-06,6.605438198537547e-06,5.03684285252528e-06,5.398099205761963e-06,4.512779361734606e-06,8.792547211382018e-06,Sat
0.30426923100000014,7.970164765822105e-06,6.803299180051313e-06,5.039420257548254e-06,5.3978128719555565e-06,4.516397812547616e-06,8.787924554735213e-06,Sat
0.3047884620000003,7.996791186699763e-06,6.985468430170406e-06,5.035907654165351e-06,5.39180493120759e-06,4.5232061563660445e-06,8.773625506803946e-06,Sat
0.3053076920000004,8.02453562216493e-06,7.137123879760557e-06,5.0215731239439085e-06,5.382264951057617e-06,4.525823316944862e-06,8.731087504108936e-06,Sat
0.3058269230000006,8.061825127156013e-06,7.259552800873487e-06,5.000673339446346e-06,5.370253052656853e-06,4.525084930015264e-06,8.677927207760352e-06,Sat
0.30634615399999987,8.09849324581344e-06,7.368409694227506e-06,4.979172595504849e-06,5.358350146936396e-06,4.5290946464056464e-06,8.655726088392501e-06,Sat
0.30686538500000005,8.127116111252535e-06,7.4760580564503824e-06,4.9604882093479045e-06,5.350439952140378e-06,4.529135232481806e-06,8.656095957624572e-06,Sat
0.30738461500000014,8.153554624498222e-06,7.575711512640827e-06,4.949217255028349e-06,5.349771230672801e-06,4.53177992969817e-06,8.65650736039209e-06,Sat
0.3079038460000003,8.182997324899422e-06,7.649607039566074e-06,4.950995894948751e-06,5.354580459716633e-06,4.549283717024429e-06,8.645893249087969e-06,Sat
0.3084230770000005,8.209194073949677e-06,7.687593443567088e-06,4.968234670262941e-06,5.356953775263034e-06,4.566284598599436e-06,8.626616223258823e-06,Sat
0.3089423079999998,8.224541474394357e-06,7.693317870291289e-06,5.0018157274822736e-06,5.354908306061506e-06,4.575542272911642e-06,8.628600059030284e-06,Sat
0.30946153799999987,8.2367465747981e-06,7.679000483210977e-06,5.0495054338966015e-06,5.35313502563427e-06,4.586899650556619e-06,8.585502701777747e-06,Sat
0.30998076900000004,8.256860061673358e-06,7.6583383544888e-06,5.105782861652075e-06,5.353329208564815e-06,4.618389566985611e-06,8.40953386050451e-06,Sat
0.3105000000000002,8.281530610645099e-06,7.644430193254778e-06,5.163839460756024e-06,5.3562200942098455e-06,4.669360441775147e-06,8.22029475545255e-06,Sat
0.3110192310000004,8.294300718061938e-06,7.646310498922014e-06,5.203178242499979e-06,5.358095968332974e-06,4.714641710352106e-06,8.15652174729892e-06,Sat
0.31153846200000057,8.292884360427879e-06,7.670481062540978e-06,5.2125420433344524e-06,5.346778745387533e-06,4.745049522270204e-06,8.156563854943081e-06,Sat
0.3120576919999998,8.298072609898155e-06,7.731667263247798e-06,5.210233833268707e-06,5.320054482067783e-06,4.778478251868239e-06,8.131596980278637e-06,Sat
0.31257692299999995,8.312818537701477e-06,7.843293406400639e-06,5.208892085170726e-06,5.295285032863647e-06,4.838986589560581e-06,8.066785504392954e-06,Sat
0.3130961540000001,8.321752651413696e-06,7.99383821937617e-06,5.209658720356234e-06,5.284242311784651e-06,4.897441985609086e-06,7.951567079854356e-06,Sat
0.3136153850000003,8.321590535369337e-06,8.152563039325206e-06,5.212530824533662e-06,5.281871294322889e-06,4.910272822038583e-06,7.791953040160416e-06,Sat
0.3141346150000004,8.318925569679613e-06,8.297999166153405e-06,5.211347431842684e-06,5.281585551876058e-06,4.907321071140964e-06,7.705611542437809e-06,Sat
0.31465384600000057,8.342103956811395e-06,8.43082512931383e-06,5.208104183476412e-06,5.282377209754302e-06,4.907209602739297e-06,7.699972142044556e-06,Sat
0.31517307699999986,8.41973902305392e-06,8.562908739209411e-06,5.21101915331507e-06,5.283411459660177e-06,4.87741788485415e-06,7.298226110654458e-06,Sat
0.31569230800000003,8.530013878894027e-06,8.69862718410392e-06,5.214871422946213e-06,5.268105707048277e-06,4.829243557233335e-06,6.148418602726091e-06,Sat
0.3162115380000001,8.635267963435738e-06,8.826232825954949e-06,5.204467854675461e-06,5.219496731703641e-06,4.791528816423814e-06,4.885630802042679e-06,Sat
0.3167307690000003,8.731907671356902e-06,8.930282200843815e-06,5.1757405156339245e-06,5.160814883268738e-06,4.766222754463282e-06,4.435125661027214e-06,Sat
0.3172500000000005,8.845263999422721e-06,9.00945595939742e-06,5.148263219125512e-06,5.124561618285735e-06,4.7658269541554605e-06,4.442628427795466e-06,Sat
0.31776923099999976,9.010073619213627e-06,9.075089117240424e-06,5.144082625081515e-06,5.103312618040415e-06,4.800874313202703e-06,4.376943016064898e-06,Sat
0.31828846199999994,9.233671115863272e-06,9.137180323626949e-06,5.162801797064303e-06,5.065816547374468e-06,4.847773034410703e-06,4.324927567965623e-06,Sat
0.31880769200000003,9.474451162830053e-06,9.19521898469929e-06,5.19170893424849e-06,4.963012400907731e-06,4.872314089645538e-06,4.322961438109396e-06,Sat
0.3193269230000002,9.683599851203404e-06,9.239829180800626e-06,5.218192811353363e-06,4.797353265300989e-06,4.872692029230569e-06,4.318306741500854e-06,Sat
0.3198461540000004,9.843482620077973e-06,9.264875576597657e-06,5.238689717293988e-06,4.682732430851871e-06,4.869043077279179e-06,4.315851332525031e-06,Sat
0.32036538500000056,9.958623693756424e-06,9.274215149632368e-06,5.261615310127314e-06,4.669977577258061e-06,4.86784283088778e-06,4.318922331288911e-06,Sat
0.32088461499999976,1.0046098304231912e-05,9.274888310729816e-06,5.290490200562203e-06,4.6859555182655485e-06,4.87068159305026e-06,4.316869258633353e-06,Sat
0.32140384599999994,1.0126429182724647e-05,9.270738171081878e-06,5.322086898670515e-06,4.694868977443938e-06,4.891721897637665e-06,4.297920193329425e-06,Sat
0.3219230770000001,1.0204083645033512e-05,9.2627351348276e-06,5.35393045546123e-06,4.700136256825886e-06,4.9348290950115086e-06,4.2459406735753775e-06,Sat
0.3224423080000003,1.0266605366089306e-05,9.250295327112088e-06,5.384000058904418e-06,4.7057904722536415e-06,4.981430798537003e-06,4.149343918298372e-06,Sat
0.3229615380000004,1.0301662104535944e-05,9.232396781783335e-06,5.414180494292122e-06,4.7157724000908905e-06,5.014798779281162e-06,4.039164845957163e-06,Sat
0.32348076900000056,1.031585042271664e-05,9.20922336901777e-06,5.4488707634374455e-06,4.713166336995275e-06,5.032017424101148e-06,3.992404749818423e-06,Sat
0.32399999999999984,1.0326394952646907e-05,9.180686638090909e-06,5.49173696649193e-06,4.695420505992731e-06,5.035643494757327e-06,4.003444282019633e-06,Sat
0.324519231,1.0340123098551064e-05,9.14380725732444e-06,5.542400891790045e-06,4.679984685713717e-06,5.03035740987877e-06,3.931150092078789e-06,Sat
0.3250384620000002,1.0353519152299628e-05,9.096036915819775e-06,5.592057233496818e-06,4.666008427048611e-06,5.026963167428524e-06,3.74885610331751e-06,Sat
0.3255576920000003,1.035823799066523e-05,9.04093688052076e-06,5.633093309105183e-06,4.649589280246059e-06,5.038106998059252e-06,3.646186439799122e-06,Sat
0.32607692300000046,1.0352445075640436e-05,8.989300944510126e-06,5.666040756157037e-06,4.639838594036824e-06,5.069340965099904e-06,3.64618587593925e-06,Sat
0.32659615399999975,1.0347748565043343e-05,8.95398737330455e-06,5.694772014044915e-06,4.63323014190829e-06,5.119677905243486e-06,3.522667721794335e-06,Sat
0.3271153849999999,1.0347626886713209e-05,8.938889581715911e-06,5.7230837239811376e-06,4.621576397530082e-06,5.184374757495329e-06,3.269249574318238e-06,Sat
0.327634615,1.0332032410042064e-05,8.93569168549054e-06,5.749135874439904e-06,4.61010505784792e-06,5.254010117501558e-06,3.115505950056471e-06,Sat
0.3281538460000002,1.0292846331889792e-05,8.935656975110585e-06,5.7661449170833946e-06,4.591765037478916e-06,5.319785900379652e-06,3.096316814790668e-06,Sat
0.32867307700000037,1.0257304717799208e-05,8.936557570046439e-06,5.772135590425456e-06,4.562289161472344e-06,5.387227703731785e-06,3.09476040985144e-06,Sat
0.32919230800000054,1.0247042484885703e-05,8.93763853100776e-06,5.766323036344131e-06,4.545582154771131e-06,5.479320738893627e-06,3.093652519174114e-06,Sat
0.32971153799999975,1.0262951973151172e-05,8.936282751828757e-06,5.749901333507773e-06,4.550119465423564e-06,5.596844288363132e-06,3.097717775265409e-06,Sat
0.3302307689999999,1.0305041343888362e-05,8.924531555466847e-06,5.740926183348022e-06,4.557212659711396e-06,5.687027648908765e-06,3.093183024086122e-06,Sat
0.3307500000000001,1.0358415925505e-05,8.889404754000482e-06,5.7463904868709245e-06,4.558776611910599e-06,5.7104220556310045e-06,3.0831066465171347e-06,Sat
0.3312692310000003,1.0402632329976904e-05,8.833129225593076e-06,5.745763034661145e-06,4.558743297776157e-06,5.7057267273387856e-06,3.076216222349405e-06,Sat
0.33178846200000045,1.0436366418956854e-05,8.780685045453625e-06,5.729353982543327e-06,4.558635188296203e-06,5.762828869473919e-06,3.073938087367567e-06,Sat
0.33230769200000054,1.0467057602271514e-05,8.748554106678943e-06,5.704276449131982e-06,4.559102971463035e-06,6.005332621185735e-06,3.072611866449472e-06,Sat
0.33282692299999983,1.0504498402308145e-05,8.729825620310368e-06,5.685769752163017e-06,4.560407331422012e-06,6.587863766817477e-06,3.0742871981406505e-06,Sat
0.333346154,1.0548894458734913e-05,8.712664497330034e-06,5.681802916869737e-06,4.56116376834003e-06,7.560141411627566e-06,3.082803402256366e-06,Sat
0.3338653850000002,1.059432407820734e-05,8.69347621559927e-06,5.683048998370256e-06,4.561134933083348e-06,8.693460885030367e-06,3.0934343666049046e-06,Sat
0.3343846150000003,1.064816510245875e-05,8.679411309562884e-06,5.68315860953884e-06,4.560749339102497e-06,9.624900327739771e-06,3.1012222633648853e-06,Sat
0.33490384600000045,1.0708744489551093e-05,8.67674012915623e-06,5.683283926731311e-06,4.559585833580739e-06,1.0173996098959068e-05,3.109009258472077e-06,Sat
0.3354230770000006,1.075838575475566e-05,8.681682136888423e-06,5.69017689047139e-06,4.557711387443723e-06,1.0407891900951347e-05,3.11976263708298e-06,Sat
0.3359423079999999,1.0792565482976176e-05,8.68899716604642e-06,5.708757795890334e-06,4.555488796699297e-06,1.0477431244151882e-05,3.13372651707218e-06,Sat
0.336461538,1.0822741633643692e-05,8.696650859365604e-06,5.737975192988352e-06,4.552538023207757e-06,1.0488017191431328e-05,3.152120902675704e-06,Sat
0.3369807690000002,1.0862586363207584e-05,8.704494075941616e-06,5.777498287512418e-06,4.54826211592862e-06,1.0484423554302574e-05,3.174502149895473e-06,Sat
0.33750000000000036,1.091300984807418e-05,8.714063794794593e-06,5.827750200912066e-06,4.543704327356205e-06,1.047837375467323e-05,3.1982642921188248e-06,Sat
0.33801923100000053,1.095359665670471e-05,8.726272144116105e-06,5.885536059243516e-06,4.542900814287352e-06,1.0472721423073902e-05,3.221971406407429e-06,Sat
0.3385384619999998,1.097027205174228e-05,8.739427854685819e-06,5.942274331175673e-06,4.549514664160453e-06,1.046872683734956e-05,3.245205001202308e-06,Sat
0.3390576919999999,1.0973793122974045e-05,8.751218703782111e-06,5.986199141557569e-06,4.561487123732222e-06,1.0467706419026184e-05,3.2661915078107185e-06,Sat
0.3395769230000001,1.0970614747901298e-05,8.761222175869377e-06,6.010410486521397e-06,4.572453409685391e-06,1.0477093040769225e-05,3.2815726004684814e-06,Sat
0.34009615400000026,1.0963426485530236e-05,8.768670160101037e-06,6.019652470049774e-06,4.578216281451725e-06,1.0499396317835707e-05,3.289992745714231e-06,Sat
0.34061538500000044,1.0962898255401714e-05,8.768427334736233e-06,6.023659567222539e-06,4.579171920560816e-06,1.0528189334085082e-05,3.294736651817312e-06,Sat
0.34113461500000053,1.0967656704355934e-05,8.756542660399554e-06,6.035196795365303e-06,4.576892423378345e-06,1.056064190853202e-05,3.298606847660162e-06,Sat
0.3416538459999998,1.0973435904318456e-05,8.739503543772773e-06,6.062850357330664e-06,4.5703489262297305e-06,1.059925032633816e-05,3.300186920957634e-06,Sat
0.342173077,1.0973845391785975e-05,8.7286297047287e-06,6.09326566579416e-06,4.5541538178016905e-06,1.0643773530620316e-05,3.2969635290108214e-06,Sat
0.34269230800000017,1.0955452168365146e-05,8.727419308163316e-06,6.109539124626129e-06,4.521167290040979e-06,1.0685425636433876e-05,3.2907102228194727e-06,Sat
0.34321153800000026,1.092903461028764e-05,8.730981249681823e-06,6.114516982199354e-06,4.4743848075604905e-06,1.071433683680802e-05,3.2867655323273693e-06,Sat
0.34373076900000044,1.0916411753748791e-05,8.734202336003776e-06,6.116542365511108e-06,4.430958846169693e-06,1.073001546262227e-05,3.2864583524501886e-06,Sat
0.3442500000000006,1.091459619388729e-05,8.73621509741139e-06,6.1208222130002125e-06,4.40306182716408e-06,1.0739035395587687e-05,3.2858986776440664e-06,Sat
0.3447692309999999,1.0913191063300493e-05,8.738185578592591e-06,6.127987306854087e-06,4.386816490875882e-06,1.074656879593183e-05,3.2826037182616475e-06,Sat
0.3452884620000001,1.0908525256840289e-05,8.738926252264907e-06,6.1312069994108494e-06,4.374823106736744e-06,1.0755044051854068e-05,3.2815361846873967e-06,Sat
0.34580769200000017,1.0898993728762653e-05,8.735714780729041e-06,6.130515279789825e-06,4.368401184241176e-06,1.0766465826953405e-05,3.283766495536622e-06,Sat
0.34632692300000034,1.0890966796683987e-05,8.731103479009998e-06,6.131854391556231e-06,4.373029912666693e-06,1.0779979046611589e-05,3.280172635226647e-06,Sat
0.3468461540000005,1.0889313055248246e-05,8.729837832633855e-06,6.134213291191714e-06,4.367022926281569e-06,1.0793046624038646e-05,3.266254984180031e-06,Sat
0.3473653849999998,1.089091067579814e-05,8.731211921805296e-06,6.135645615577823e-06,4.30675006616938e-06,1.0805366962107593e-05,3.245942152171005e-06,Sat
0.3478846149999999,1.089275734047872e-05,8.732965219713516e-06,6.136641544650659e-06,4.203561556296175e-06,1.0817423917647362e-05,3.2234502340805925e-06,Sat
0.3484038460000001,1.08925465635477e-05,8.734166402022645e-06,6.136636290416758e-06,4.125247328446677e-06,1.082782467951788e-05,3.201220451998337e-06,Sat
0.34892307700000025,1.0888656030520456e-05,8.7330790682966e-06,6.135013731520652e-06,4.096433563560098e-06,1.0835201226761866e-05,3.182348734844172e-06,Sat
0.3494423080000004,1.0884149022652084e-05,8.72576157817247e-06,6.135424657048115e-06,4.089919372925197e-06,1.0840508326817469e-05,3.1684132409899077e-06,Sat
0.3499615380000005,1.088237200261439e-05,8.712017574318164e-06,6.138945212683531e-06,4.0826581562078764e-06,1.084498390052047e-05,3.15706495266072e-06,Sat
0.3504807689999998,1.088440457210603e-05,8.69998469377344e-06,6.136629900195948e-06,4.061055696414575e-06,1.084787820831316e-05,3.147049666342762e-06,Sat
0.351,1.08881998101321e-05,8.695032885320773e-06,6.126695987633557e-06,4.037958642355606e-06,1.0848136233343173e-05,3.1428097214318998e-06,Sat
0.35151923100000015,1.088366644925926e-05,8.695583912028449e-06,6.117558088455027e-06,4.039524218177446e-06,1.0849410650361662e-05,3.1465336392118137e-06,Sat
0.35203846200000033,1.087176757562925e-05,8.699300856739475e-06,6.111985623234875e-06,4.050839406725387e-06,1.0854711031090735e-05,3.1508223211978063e-06,Sat
0.3525576920000004,1.086433550764585e-05,8.701552240237116e-06,6.107014343476229e-06,4.047407201921899e-06,1.0856581642530476e-05,3.14892578936143e-06,Sat
0.3530769230000006,1.086012713213453e-05,8.698354221103984e-06,6.098324079317895e-06,4.03967875092417e-06,1.085152005159994e-05,3.138709591420348e-06,Sat
0.3535961539999999,1.0853965297766984e-05,8.692158064823472e-06,6.081245925394167e-06,4.038452768346316e-06,1.08557699472578e-05,3.1278869645597324e-06,Sat
0.35411538500000006,1.0839251440741111e-05,8.686779540932302e-06,6.061450071097235e-06,4.038620226797475e-06,1.0894130317179468e-05,3.130190285552938e-06,Sat
0.35463461500000015,1.0813483688611482e-05,8.682783292108436e-06,6.052092094286679e-06,4.038382667352773e-06,1.0980719087401552e-05,3.1440318558424364e-06,Sat
0.35515384600000033,1.0798021131382513e-05,8.679197971054995e-06,6.051598457233938e-06,4.03306166299763e-06,1.1113648731577572e-05,3.1602563576164397e-06,Sat
0.3556730770000005,1.0806695945754513e-05,8.675505716458938e-06,6.050943555840684e-06,4.012381987186119e-06,1.1281214399067804e-05,3.175434232194065e-06,Sat
0.3561923079999998,1.0821491620545702e-05,8.671677150083024e-06,6.049983439629352e-06,3.976642486927078e-06,1.144906260462648e-05,3.187833550783991e-06,Sat
0.3567115379999999,1.0827555972953968e-05,8.666034915356976e-06,6.0501629295544845e-06,3.939694064515976e-06,1.1557781365967005e-05,3.196478575304571e-06,Sat
0.35723076900000006,1.082444922477587e-05,8.654873578629032e-06,6.051211251972345e-06,3.9152830492275e-06,1.1584720268908769e-05,3.199702648646534e-06,Sat
0.35775000000000023,1.0817462928090933e-05,8.637436602761845e-06,6.053591299935384e-06,3.904166244573436e-06,1.1580691290668156e-05,3.195225601250218e-06,Sat
0.3582692310000004,1.0823194090283514e-05,8.618959552586554e-06,6.056922311773506e-06,3.89914289554858e-06,1.1592825505453654e-05,3.185738775363638e-06,Sat
0.3587884620000006,1.084523614385756e-05,8.604076791636368e-06,6.059546477898385e-06,3.898768640010425e-06,1.16072838694878e-05,3.177291298642333e-06,Sat
0.3593076919999998,1.0865686860122347e-05,8.592089950937674e-06,6.0601182810315845e-06,3.897945918989244e-06,1.160787226821839e-05,3.172275885612884e-06,Sat
0.35982692299999997,1.0878341705311834e-05,8.580340237041031e-06,6.058928846449169e-06,3.874585403802431e-06,1.160747319697218e-05,3.168672719527834e-06,Sat
0.36034615400000014,1.0889676067350974e-05,8.568284746817518e-06,6.0582548342752064e-06,3.825478613206954e-06,1.160944825844681e-05,3.168473867324549e-06,Sat
0.3608653850000003,1.0901758804323011e-05,8.55830804044302e-06,6.058159366449201e-06,3.785169531103613e-06,1.160180224362817e-05,3.1746011508429983e-06,Sat
0.3613846150000004,1.0915204375545889e-05,8.551735008914338e-06,6.05622930992987e-06,3.7699440843998033e-06,1.1584735934825508e-05,3.1789128197455217e-06,Sat
0.3619038460000006,1.0932145698707588e-05,8.546870181976862e-06,6.055402446121551e-06,3.76389489226764e-06,1.1573851771787194e-05,3.1758698282122328e-06,Sat
0.36242307699999987,1.0948092956277312e-05,8.542470391803478e-06,6.054203699747373e-06,3.7565366557887457e-06,1.1576203475393965e-05,3.169871603229208e-06,Sat
0.36294230800000005,1.0953415553451638e-05,8.539627673704798e-06,6.0408137639742775e-06,3.750566194909846e-06,1.158270473058911e-05,3.163146206884565e-06,Sat
0.36346153800000014,1.094000427019072e-05,8.540227136333516e-06,6.0152229454778e-06,3.75124384498452e-06,1.1585773904623505e-05,3.156162065553831e-06,Sat
0.3639807690000003,1.09080266864725e-05,8.545047718738188e-06,5.987826256702481e-06,3.744246852502835e-06,1.1586303443438473e-05,3.14930480242205e-06,Sat
0.3645000000000005,1.0867723767748058e-05,8.551951305331252e-06,5.957792892479942e-06,3.7101491114176662e-06,1.1586369483491295e-05,3.1422097348292848e-06,Sat
0.3650192309999998,1.0822319414842131e-05,8.55541384179201e-06,5.912867950046939e-06,3.659933023650835e-06,1.15864526670757e-05,3.1349298200237898e-06,Sat
0.36553846199999995,1.076903328818669e-05,8.549863940393704e-06,5.842102460799083e-06,3.619436306629696e-06,1.158641059094888e-05,3.12746896009941e-06,Sat
0.36605769200000005,1.070507814347368e-05,8.536106591224512e-06,5.7559892556587605e-06,3.60274685966639e-06,1.1586287873953734e-05,3.1198424199284074e-06,Sat
0.3665769230000002,1.0628174233053018e-05,8.521861911464792e-06,5.685610612480063e-06,3.609060277290248e-06,1.1587085148489345e-05,3.1105589713859318e-06,Sat
0.3670961540000004,1.0560039177350909e-05,8.511710961256468e-06,5.646125181009774e-06,3.627167220844468e-06,1.1584584078915236e-05,3.096278507184389e-06,Sat
0.36761538500000057,1.0527264301954543e-05,8.504084008005098e-06,5.6252143451018335e-06,3.641174771910641e-06,1.1574273097387942e-05,3.076610567231634e-06,Sat
0.3681346149999998,1.0518770948131288e-05,8.496486530676378e-06,5.6073367910197255e-06,3.6418233507935214e-06,1.156427062914945e-05,3.05924963922086e-06,Sat
0.36865384599999995,1.0514944924888569e-05,8.488307880345451e-06,5.589430744241195e-06,3.639683641249901e-06,1.1560430817219431e-05,3.051485205315276e-06,Sat
0.3691730770000001,1.051214999663675e-05,8.481902758166994e-06,5.577247354940887e-06,3.6483471428946167e-06,1.155692983809702e-05,3.051988092177041e-06,Sat
0.3696923080000003,1.0503733498107074e-05,8.477521225334217e-06,5.573100444881098e-06,3.662274877657256e-06,1.1549711845232058e-05,3.058662041820325e-06,Sat
0.3702115380000004,1.0496492505319783e-05,8.473472287016838e-06,5.572934300332553e-06,3.669356320052463e-06,1.1537377753691236e-05,3.070643585278635e-06,Sat
0.37073076900000057,1.0501617638215508e-05,8.469557554155668e-06,5.573299821412633e-06,3.665199589788621e-06,1.1520234387283414e-05,3.0827730072084933e-06,Sat
0.37124999999999986,1.050244061725214e-05,8.465690283360446e-06,5.573974948977106e-06,3.653198319771565e-06,1.150613028714162e-05,3.0908223918321533e-06,Sat
0.37176923100000003,1.0496187917021508e-05,8.463920215620128e-06,5.574974363491312e-06,3.644774306155751e-06,1.1503002451013643e-05,3.096833423680759e-06,Sat
0.3722884620000002,1.0496992226021456e-05,8.46658066868896e-06,5.574446079923895e-06,3.650173310903825e-06,1.150806818650901e-05,3.1062960453783723e-06,Sat
0.3728076920000003,1.049858955159248e-05,8.471830809813414e-06,5.568902768070996e-06,3.6654974663651705e-06,1.1513773229371156e-05,3.125157452410528e-06,Sat
0.3733269230000005,1.0495386803204748e-05,8.475827293337352e-06,5.555371019976632e-06,3.6794611253529993e-06,1.1517860589351976e-05,3.1509901230897764e-06,Sat
0.37384615399999976,1.0478686940662763e-05,8.476092819796698e-06,5.533490448546396e-06,3.68651993097886e-06,1.1522872523785394e-05,3.172075308829162e-06,Sat
0.37436538499999994,1.0440097114828776e-05,8.47288231053369e-06,5.50279086063189e-06,3.6874687506160015e-06,1.1531694574532216e-05,3.1828714520788065e-06,Sat
0.37488461500000003,1.040010287169732e-05,8.468218468235562e-06,5.462350582256927e-06,3.684838778107396e-06,1.1545661822238968e-05,3.187038704635616e-06,Sat
0.3754038460000002,1.0377895264014245e-05,8.462923993505392e-06,5.418661689923496e-06,3.680586695458639e-06,1.1563723583197174e-05,3.1876057566622933e-06,Sat
0.3759230770000004,1.0370284335038034e-05,8.454964509450457e-06,5.385117170879055e-06,3.6756294230050434e-06,1.1581432627261607e-05,3.1843713301112645e-06,Sat
0.37644230800000056,1.0373878488106772e-05,8.440913406119594e-06,5.368132450050234e-06,3.670181711359465e-06,1.1593646127964636e-05,3.181242329794921e-06,Sat
0.37696153799999976,1.037791918181002e-05,8.42243565647861e-06,5.362258568148565e-06,3.6636422671141615e-06,1.1599470598395109e-05,3.184869565997607e-06,Sat
0.37748076899999994,1.0370414371497344e-05,8.407984480814144e-06,5.3597087498558726e-06,3.6534180434014097e-06,1.1602440638087336e-05,3.187815257296079e-06,Sat
0.3780000000000001,1.0365452347986888e-05,8.401746840748805e-06,5.356283603570218e-06,3.637760129028909e-06,1.160527010034718e-05,3.1821962235295097e-06,Sat
0.3785192310000003,1.0366711868284504e-05,8.39985562355563e-06,5.346377818907919e-06,3.623191877533477e-06,1.1609350485343888e-05,3.175677859562739e-06,Sat
0.37903846200000046,1.0364360001077178e-05,8.398961340374237e-06,5.322512833471556e-06,3.6190642999290295e-06,1.1615723410855092e-05,3.1706759990893373e-06,Sat
0.37955769200000056,1.0365274339464606e-05,8.398764786651705e-06,5.28542523282372e-06,3.623093909506893e-06,1.1622377552671696e-05,3.16304976160507e-06,Sat
0.38007692299999984,1.0367713896543656e-05,8.400132860788261e-06,5.24936284254588e-06,3.627964532705243e-06,1.162669957056712e-05,3.152818460367565e-06,Sat
0.380596154,1.036830069596252e-05,8.403781465221625e-06,5.2300386282868696e-06,3.6264571709064593e-06,1.1626800663056592e-05,3.142280693772329e-06,Sat
0.3811153850000002,1.0362556009823105e-05,8.409739926505409e-06,5.226861958306309e-06,3.610565537375635e-06,1.1623803855167766e-05,3.1339306774240878e-06,Sat
0.3816346150000003,1.0341427746492472e-05,8.417642837554906e-06,5.229127757154327e-06,3.589086291062932e-06,1.162271617607016e-05,3.1276664758550795e-06,Sat
0.38215384600000046,1.032933405855509e-05,8.42518221991472e-06,5.2346638996956415e-06,3.577335778324096e-06,1.1624122375079889e-05,3.1218605287591106e-06,Sat
0.38267307699999975,1.0343389304201884e-05,8.42830901114681e-06,5.241624688708109e-06,3.5744809501350666e-06,1.1625174936302758e-05,3.118227131113556e-06,Sat
0.3831923079999999,1.0357881289470583e-05,8.426073126870834e-06,5.241728387029681e-06,3.5744506791803364e-06,1.162475815407622e-05,3.1191041180102028e-06,Sat
0.383711538,1.0360389791056953e-05,8.421242310220248e-06,5.236519133637314e-06,3.5773478745829847e-06,1.1621007644634193e-05,3.1227990476901214e-06,Sat
0.3842307690000002,1.0353195727825078e-05,8.415097594717328e-06,5.23385404851745e-06,3.5838712275482366e-06,1.1613608101331644e-05,3.127028758514207e-06,Sat
0.38475000000000037,1.0333225270748508e-05,8.405925543606015e-06,5.234129840498178e-06,3.584226235143532e-06,1.1605967079976107e-05,3.1313413995252662e-06,Sat
0.38526923100000054,1.0314995754602374e-05,8.392062380593809e-06,5.235129686110068e-06,3.567602410949319e-06,1.16001735831995e-05,3.1369014956241223e-06,Sat
0.38578846199999983,1.0308974744392e-05,8.378477700016932e-06,5.235851394170009e-06,3.544048613501108e-06,1.1595955832690398e-05,3.143769970352321e-06,Sat
0.3863076919999999,1.0307697250336698e-05,8.37555907538964e-06,5.232873142015874e-06,3.5332676923335622e-06,1.1595498228397344e-05,3.1478097655854432e-06,Sat
0.3868269230000001,1.0305829814803548e-05,8.382331709897926e-06,5.216605359653576e-06,3.536129274224296e-06,1.159990108540933e-05,3.1445363806871237e-06,Sat
0.3873461540000003,1.030000778926961e-05,8.387337502672998e-06,5.183578522871395e-06,3.539441385708864e-06,1.1605352712778645e-05,3.1325418086702564e-06,Sat
0.38786538500000045,1.029444870948364e-05,8.387323402986682e-06,5.150062446305533e-06,3.539522700360116e-06,1.1608954690944376e-05,3.116465962002037e-06,Sat
