Time,Rectus Femoris,Vastus Medialis,Vastus Lateralis,Bicep Femoris,Tibialis,Gastrocnemius Medialis,Activity
0.0,3.393718908285535e-05,8.83080783092742e-06,2.002233317552608e-05,7.024703777453985e-06,1.6539564898215894e-05,4.144353834623823e-06,Unknown
0.0005192310000001754,3.392842610036895e-05,8.80900519983189e-06,2.0057381466708e-05,7.14803042074072e-06,1.6383820728720868e-05,4.156049746862707e-06,Unknown
0.0010384620000003508,3.3888105937722304e-05,8.789886889498341e-06,2.008334813811499e-05,7.236641754735699e-06,1.6341495400451745e-05,4.167693144909259e-06,Unknown
0.0015576920000004435,3.384188985440045e-05,8.755141595511036e-06,2.010351822383722e-05,7.274285800046662e-06,1.6341347365319622e-05,4.176476929382177e-06,Unknown
0.002076923000000619,3.3806729232313384e-05,8.696468144086421e-06,2.0112855229419845e-05,7.266542909144974e-06,1.6300749287262654e-05,4.183860451195019e-06,Unknown
0.0025961540000007943,3.373285387689174e-05,8.626083285469059e-06,2.0104690149246304e-05,7.26603430018871e-06,1.617340622692921e-05,4.184904235071174e-06,Unknown
0.0031153850000000816,3.3614511357116183e-05,8.59027184705541e-06,2.008349614196712e-05,7.279026769628564e-06,1.5849825436271943e-05,4.168220643005781e-06,Unknown
0.0036346150000001742,3.35576555216401e-05,8.614786128348156e-06,2.006132365125697e-05,7.276019932912488e-06,1.5161829752302868e-05,4.140068100449606e-06,Unknown
0.00415384600000035,3.3560842284806115e-05,8.658810349006832e-06,2.0043129132385927e-05,7.272210233198053e-06,1.4109521695366431e-05,4.120785030366617e-06,Unknown
0.004673077000000525,3.354879796683697e-05,8.685104837625445e-06,2.0026474394783e-05,7.27403394124883e-06,1.2914961885262244e-05,4.125204713966677e-06,Unknown
0.0051923080000007005,3.350435718699375e-05,8.700730437109553e-06,2.0010305027309515e-05,7.263764639741132e-06,1.177467011936925e-05,4.148017019131568e-06,Unknown
0.005711538000000793,3.3444680448078505e-05,8.71991110690479e-06,2.000105677358474e-05,7.252720199266207e-06,1.0775118899829004e-05,4.166644175704946e-06,Unknown
0.00623076900000008,3.347612161452852e-05,8.743368202396548e-06,2.0009078312612032e-05,7.25099863407443e-06,1.0021798766990728e-05,4.172601720167517e-06,Unknown
0.006750000000000256,3.364460177873546e-05,8.747566653792302e-06,2.0035128391868498e-05,7.251223547811248e-06,9.66784431321817e-06,4.1642627397413534e-06,Unknown
0.007269231000000431,3.381124370928413e-05,8.721746527675887e-06,2.00724536492735e-05,7.251288700267225e-06,9.656859926571328e-06,4.137695653441758e-06,Unknown
0.007788462000000607,3.389742443675668e-05,8.69491410635981e-06,2.012696760162759e-05,7.250111174187104e-06,9.67632005830432e-06,4.1043826252689465e-06,Unknown
0.0083076920000007,3.394843788437023e-05,8.682571357731952e-06,2.02226797241775e-05,7.2540758004687455e-06,9.613982391615496e-06,4.077668287642766e-06,Unknown
0.008826922999999987,3.400364110014767e-05,8.671952144705802e-06,2.038205513425163e-05,7.267769783881438e-06,9.579064706275964e-06,4.059296081909379e-06,Unknown
0.009346154000000162,3.407735803118391e-05,8.649928379515392e-06,2.0591745802093917e-05,7.2788120246863805e-06,9.578138038949468e-06,4.046419294638584e-06,Unknown
0.009865385000000337,3.41263419543793e-05,8.59829032703016e-06,2.07928114240657e-05,7.282849275742922e-06,9.57950913688749e-06,4.039494116278484e-06,Unknown
0.01038461500000043,3.4107042086713255e-05,8.517304828335486e-06,2.093230717639916e-05,7.286253420349642e-06,9.589059301500025e-06,4.038357943485312e-06,Unknown
0.010903846000000605,3.4066975667737407e-05,8.44907925857669e-06,2.1008111145949228e-05,7.285342392531784e-06,9.594211514971304e-06,4.038450917108311e-06,Unknown
0.01142307700000078,3.4048638019447275e-05,8.418231811432335e-06,2.1048546996138592e-05,7.278137434354411e-06,9.613933138656444e-06,4.039089913513804e-06,Unknown
0.011942308000000068,3.402856642410845e-05,8.407765057579255e-06,2.107844346637882e-05,7.271541571277482e-06,9.639763630739163e-06,4.0356645561246095e-06,Unknown
0.01246153800000016,3.3981308105619094e-05,8.393974786552957e-06,2.1109269803556823e-05,7.26738220689029e-06,9.612736205269726e-06,4.02489673983915e-06,Unknown
0.012980769000000336,3.3876297980881275e-05,8.364764249964222e-06,2.113975073792116e-05,7.260509203266172e-06,9.556031226409352e-06,4.0183415633246654e-06,Unknown
0.013500000000000512,3.3703881917927175e-05,8.33999724929939e-06,2.1156912230801743e-05,7.240466467760099e-06,9.532354553662555e-06,4.01774725408347e-06,Unknown
0.014019231000000687,3.352391298216831e-05,8.342174248307954e-06,2.114531197877178e-05,7.194755436128152e-06,9.539115582172142e-06,4.01423926294972e-06,Unknown
0.014538461999999974,3.337122810402866e-05,8.361349524342818e-06,2.110890094798844e-05,7.118042075426966e-06,9.572367305628566e-06,4.001763270625339e-06,Unknown
0.015057692000000067,3.3270262508003675e-05,8.394150995419276e-06,2.1070677298928808e-05,7.018240481767368e-06,9.618827123251868e-06,3.987648775058278e-06,Unknown
0.015576923000000242,3.329411405863083e-05,8.436825721707449e-06,2.103548366728184e-05,6.9175941336837015e-06,9.634923471263227e-06,3.996666175336727e-06,Unknown
0.016096154000000418,3.3408555452683634e-05,8.458758954841515e-06,2.098381739103375e-05,6.84274545829488e-06,9.620936372113629e-06,4.039502520353557e-06,Unknown
0.016615385000000593,3.3493880835875965e-05,8.457481353039974e-06,2.091723800874363e-05,6.803958533573181e-06,9.601559989020966e-06,4.109861329499126e-06,Unknown
0.017134615000000686,3.352607317888256e-05,8.455808631985547e-06,2.0879415117248672e-05,6.788478789727337e-06,9.57825911513925e-06,4.179688194140221e-06,Unknown
0.017653845999999973,3.355341890613828e-05,8.455880916197026e-06,2.09090909154358e-05,6.78057090225419e-06,9.531011779283851e-06,4.208788988309457e-06,Unknown
0.01817307700000015,3.367243185684434e-05,8.458455784029789e-06,2.0991492364998676e-05,6.773512445003122e-06,9.425975253998214e-06,4.19799615169095e-06,Unknown
0.018692308000000324,3.390957409674417e-05,8.450583116718808e-06,2.108706792171988e-05,6.7706263665896266e-06,9.288562379646691e-06,4.220978553267359e-06,Unknown
0.019211538000000417,3.410027809880029e-05,8.406053932306861e-06,2.117589554256826e-05,6.776608642707702e-06,9.20151633717654e-06,4.352764061873918e-06,Unknown
0.019730769000000592,3.4154174391950945e-05,8.354348232552315e-06,2.125636666110797e-05,6.783410227871472e-06,9.1697073785776e-06,4.541931636721435e-06,Unknown
0.020250000000000767,3.416444586061657e-05,8.337799242219726e-06,2.1329823600221736e-05,6.785926443654601e-06,9.139952848944436e-06,4.678852623014619e-06,Unknown
0.020769231000000055,3.419396105000567e-05,8.338044423373134e-06,2.139075593450642e-05,6.783560065393284e-06,9.09583895317788e-06,4.735417181669299e-06,Unknown
0.02128846200000023,3.424951804564231e-05,8.34105581299908e-06,2.143331178178597e-05,6.775875084027482e-06,9.050233933888748e-06,4.750447725670916e-06,Unknown
0.021807692000000323,3.4273362557230056e-05,8.346921598040484e-06,2.146063689156473e-05,6.775518934975231e-06,9.041511167601443e-06,4.759439597046355e-06,Unknown
0.022326923000000498,3.416230867403227e-05,8.336003210284829e-06,2.1476138724561195e-05,6.773534473390183e-06,9.094242269092831e-06,4.773235301445784e-06,Unknown
0.022846154000000674,3.397513624194435e-05,8.3331327822893e-06,2.1475978862319184e-05,6.746195236593762e-06,9.177897215165692e-06,4.785952063465532e-06,Unknown
0.02336538500000085,3.385353028253432e-05,8.382745663786195e-06,2.1452949182972503e-05,6.711895610300287e-06,9.255654824295782e-06,4.787474048348892e-06,Unknown
0.023884615000000053,3.3804642977895106e-05,8.460784884842336e-06,2.139769410802676e-05,6.694261071747572e-06,9.311546977932934e-06,4.776658186277556e-06,Unknown
0.02440384600000023,3.3761718770963874e-05,8.522540912353407e-06,2.129830063958438e-05,6.686492946527089e-06,9.337482780467703e-06,4.757792115293672e-06,Unknown
0.024923077000000404,3.3674775019499264e-05,8.559480426926522e-06,2.11541729504252e-05,6.678063463022979e-06,9.341122849542004e-06,4.734541026951945e-06,Unknown
0.02544230800000058,3.3554806772181787e-05,8.580915772128996e-06,2.09985936556619e-05,6.668097728626394e-06,9.34146172483056e-06,4.712662955014429e-06,Unknown
0.025961538000000672,3.347818577616493e-05,8.597373561532935e-06,2.0886424277547536e-05,6.66433989007146e-06,9.345558771159989e-06,4.697541353163146e-06,Unknown
0.026480769000000848,3.349263118488882e-05,8.617665114515627e-06,2.0840500597826613e-05,6.666907437987823e-06,9.353352028271564e-06,4.690733363250799e-06,Unknown
0.027000000000000135,3.360772009402335e-05,8.65186614348623e-06,2.083550224681709e-05,6.673039474724446e-06,9.362565615966418e-06,4.6893025807548425e-06,Unknown
0.02751923100000031,3.383588516334003e-05,8.698589768316834e-06,2.083680660938535e-05,6.679906450871319e-06,9.35166246024312e-06,4.688962693296462e-06,Unknown
0.028038462000000486,3.410638098903586e-05,8.729585201636907e-06,2.082956113658901e-05,6.674030899339114e-06,9.324766666804356e-06,4.686182052745109e-06,Unknown
0.02855769200000058,3.429118243754372e-05,8.732728673353082e-06,2.0827955156008156e-05,6.657063457246155e-06,9.320031015529296e-06,4.678931478842888e-06,Unknown
0.029076923000000754,3.4372626385711755e-05,8.726958830694312e-06,2.085629705235537e-05,6.642371668790396e-06,9.327383054437308e-06,4.669554142712716e-06,Unknown
0.02959615400000004,3.441836829902101e-05,8.721493020466363e-06,2.091392809598897e-05,6.632679885444596e-06,9.308530103770702e-06,4.665014685994083e-06,Unknown
0.030115385000000217,3.447939400954912e-05,8.720247500128547e-06,2.098029502645017e-05,6.628165275011485e-06,9.265784219332388e-06,4.67101128326589e-06,Unknown
0.03063461500000031,3.4543369904774425e-05,8.724663243497984e-06,2.1038105356711396e-05,6.624222100443836e-06,9.235679200609614e-06,4.6812571576751605e-06,Unknown
0.031153846000000485,3.450155994448238e-05,8.723914346544731e-06,2.108075816372658e-05,6.616981386941557e-06,9.2468166562152e-06,4.682672548263361e-06,Unknown
0.03167307700000066,3.433727685745757e-05,8.722958486237438e-06,2.1105452410196967e-05,6.610569949791304e-06,9.278734579009904e-06,4.676384741392771e-06,Unknown
0.032192308000000835,3.41959721278588e-05,8.737226913744315e-06,2.110024082033077e-05,6.6078933621705655e-06,9.2961576209206e-06,4.673787412155155e-06,Unknown
0.03271153800000004,3.4126732763645454e-05,8.75620199666338e-06,2.105688511367239e-05,6.609991630459516e-06,9.297327103978582e-06,4.678487587942684e-06,Unknown
0.033230769000000215,3.407175831987653e-05,8.762575022284371e-06,2.0989122554742567e-05,6.609231483174359e-06,9.281935818201615e-06,4.685808668114824e-06,Unknown
0.03375000000000039,3.39733484776045e-05,8.744693207726713e-06,2.0916236026987303e-05,6.601481323105716e-06,9.259437331400115e-06,4.694817755717753e-06,Unknown
0.034269231000000566,3.379157779343596e-05,8.698659084409437e-06,2.084154757968345e-05,6.602222841050096e-06,9.276454294467917e-06,4.72512155246614e-06,Unknown
0.03478846200000074,3.364336057584365e-05,8.673522160409991e-06,2.075507646264716e-05,6.622100685020026e-06,9.326404452319633e-06,4.805205011764772e-06,Unknown
0.035307692000000834,3.366540491931757e-05,8.71779880008582e-06,2.06503695567084e-05,6.660105898294559e-06,9.348340705393015e-06,4.934098113821447e-06,Unknown
0.03582692300000012,3.3773772336127585e-05,8.793525028631951e-06,2.0536407226983188e-05,6.699760017870142e-06,9.34594591317054e-06,5.068581637835004e-06,Unknown
0.0363461540000003,3.3847458819383795e-05,8.852435730424369e-06,2.043247992918053e-05,6.71581340952991e-06,9.348264938802428e-06,5.149019365115505e-06,Unknown
0.03686538500000047,3.3864465256019725e-05,8.895603147666779e-06,2.035323310257143e-05,6.7215298558470096e-06,9.350155556093382e-06,5.1580702810273125e-06,Unknown
0.037384615000000565,3.3856998994202e-05,8.937369392800833e-06,2.030164575982846e-05,6.739690496191124e-06,9.349379439280289e-06,5.156279024959569e-06,Unknown
0.03790384600000074,3.390648870835966e-05,8.977425668118994e-06,2.027665433615481e-05,6.755697767105557e-06,9.336153352914294e-06,5.204400483737115e-06,Unknown
0.03842307700000003,3.402734805150506e-05,8.995578841779424e-06,2.028292426804925e-05,6.76065985027411e-06,9.316403075533104e-06,5.284664866738344e-06,Unknown
0.0389423080000002,3.415933696399288e-05,8.99185126117726e-06,2.0324956440763717e-05,6.762258292474719e-06,9.321160710894358e-06,5.359146218502602e-06,Unknown
0.039461538000000296,3.4286302499595295e-05,8.992589266785194e-06,2.03882929480565e-05,6.76315979258118e-06,9.3489433613258e-06,5.4304406550726165e-06,Unknown
0.03998076900000047,3.4387420608610415e-05,9.002214589451588e-06,2.043883276883429e-05,6.768763270314154e-06,9.382536959706656e-06,5.52284302481832e-06,Unknown
0.04050000000000065,3.4422061809653306e-05,9.006413086616959e-06,2.0458042497619383e-05,6.7782116739407504e-06,9.412519798248468e-06,5.646826844180257e-06,Unknown
0.04101923100000082,3.440295089365733e-05,9.001848581827115e-06,2.0466826378428483e-05,6.784443143651935e-06,9.427191098974476e-06,5.773291868853322e-06,Unknown
0.04153846200000011,3.435079221314179e-05,8.988913412403928e-06,2.0492716242268172e-05,6.789029115791205e-06,9.428208001814676e-06,5.855210650517842e-06,Unknown
0.0420576920000002,3.427024694637818e-05,8.968886990374922e-06,2.0529935162587145e-05,6.796046089665549e-06,9.42447096021429e-06,5.883093301422321e-06,Unknown
0.04257692300000038,3.415750356015848e-05,8.946711826633233e-06,2.055322499369812e-05,6.804455752171375e-06,9.41217767234897e-06,5.885943716559791e-06,Unknown
0.04309615400000055,3.3986025987311935e-05,8.930936650700158e-06,2.0550228164254537e-05,6.805269383205696e-06,9.387896739887075e-06,5.886000838804097e-06,Unknown
0.04361538500000073,3.382140553036266e-05,8.942488458865539e-06,2.052530317922125e-05,6.787332589311482e-06,9.350410679859162e-06,5.886050926917231e-06,Unknown
0.04413461500000082,3.3779763274834995e-05,8.98308263221527e-06,2.0485259186832815e-05,6.761584238374695e-06,9.301562934198508e-06,5.886781985822584e-06,Unknown
0.04465384600000011,3.381429867007078e-05,9.02782091336684e-06,2.042520861045093e-05,6.755857504753867e-06,9.286872161851583e-06,5.892290593275607e-06,Unknown
0.045173077000000283,3.381589341984062e-05,9.069622002835132e-06,2.033362048257593e-05,6.767619467174625e-06,9.320504000940184e-06,5.905889327871802e-06,Unknown
0.04569230800000046,3.37593968995864e-05,9.127405938623349e-06,2.022077414448481e-05,6.774674624244711e-06,9.34745119154828e-06,5.923849334971178e-06,Unknown
0.04621153800000055,3.369182706558142e-05,9.23203796482424e-06,2.01278307508879e-05,6.775494894011485e-06,9.352414358002382e-06,5.92958146165985e-06,Unknown
0.04673076900000073,3.375536964335194e-05,9.394001753860947e-06,2.0084169828761405e-05,6.775563827218456e-06,9.325175515171686e-06,5.909840640380807e-06,Unknown
0.047250000000000014,3.4001400527892274e-05,9.56429893662696e-06,2.008177894827503e-05,6.775701611437102e-06,9.288702687830318e-06,5.887276387307908e-06,Unknown
0.04776923100000019,3.426246933775355e-05,9.677057696091852e-06,2.010181185148243e-05,6.77485701875844e-06,9.319827702651496e-06,5.900822905614668e-06,Unknown
0.048288462000000365,3.441965073190038e-05,9.728569022068683e-06,2.013425024797324e-05,6.767474148654213e-06,9.374707239354803e-06,5.93786774433352e-06,Unknown
0.04880769200000046,3.450559067262324e-05,9.757031669637688e-06,2.0177090647667388e-05,6.754925534674881e-06,9.386426448290434e-06,5.953000918339801e-06,Unknown
0.04932692300000063,3.4575646158469274e-05,9.781326075714447e-06,2.023089253483525e-05,6.747201226296028e-06,9.385766790970572e-06,5.955508067606353e-06,Unknown
0.04984615400000081,3.466605672878908e-05,9.798346240011703e-06,2.0291598416431418e-05,6.746538189293454e-06,9.35641915280477e-06,5.962460470369716e-06,Unknown
0.050365385000000096,3.47383041884515e-05,9.79387211193611e-06,2.0347449748410616e-05,6.747909942645831e-06,9.288511407602996e-06,6.059315171475709e-06,Unknown
0.05088461500000019,3.473030093226572e-05,9.76708243491921e-06,2.0384219878379352e-05,6.746308395539531e-06,9.259959523003945e-06,6.624814313014313e-06,Unknown
0.051403846000000364,3.468358933350744e-05,9.743585294548718e-06,2.0393180120457e-05,6.739302296065877e-06,9.28809963736252e-06,7.66423398033278e-06,Unknown
0.05192307700000054,3.465058257087846e-05,9.73509706939966e-06,2.0373699509217893e-05,6.731909292568852e-06,9.33240932014938e-06,8.540988540512216e-06,Unknown
0.052442308000000715,3.4620365928333164e-05,9.732305336347736e-06,2.0332174092116653e-05,6.734780795191809e-06,9.381469706025313e-06,9.006663821766082e-06,Unknown
0.05296153800000081,3.45838792198148e-05,9.728872324694149e-06,2.02824742890028e-05,6.757372117129783e-06,9.422523989063796e-06,9.278595427235568e-06,Unknown
0.053480769000000095,3.449306314433915e-05,9.716424804975e-06,2.0238257774429614e-05,6.798165900875203e-06,9.438271154130972e-06,9.495173222287605e-06,Unknown
0.05400000000000027,3.43046772833088e-05,9.695025974673716e-06,2.020051524652693e-05,6.837251331237831e-06,9.438257656318068e-06,9.546860762308035e-06,Unknown
0.054519231000000445,3.409682589332434e-05,9.685124790949333e-06,2.0160147712747284e-05,6.853205905599664e-06,9.455924009983934e-06,9.679031514003812e-06,Unknown
0.05503846200000062,3.396234534333342e-05,9.71356278592017e-06,2.010853841592912e-05,6.852069228805428e-06,9.491997466752605e-06,1.0675638968616636e-05,Unknown
0.055557692000000714,3.3948464947257514e-05,9.79249643361198e-06,2.004761183592294e-05,6.8545929024122e-06,9.522445932145696e-06,1.2001358105847595e-05,Unknown
0.056076923,3.4076060761825744e-05,9.89059538039739e-06,1.9991491202429065e-05,6.868009157946191e-06,9.551058989017662e-06,1.2586662911076196e-05,Unknown
0.056596154000000176,3.425873206565422e-05,9.957706939099372e-06,1.995365053603884e-05,6.891448547579703e-06,9.599417048314835e-06,1.2628737066174675e-05,Unknown
0.05711538500000035,3.438196282329204e-05,9.986377864527647e-06,1.993666536112921e-05,6.91275652006197e-06,9.679693988351129e-06,1.2639841689832602e-05,Unknown
0.057634615000000444,3.444245296568848e-05,1.0001663092100235e-05,1.99344651005981e-05,6.916600501627566e-06,9.753061194182776e-06,1.264579953943434e-05,Unknown
0.05815384600000062,3.449897043864121e-05,1.0024470871029092e-05,1.9942784523665896e-05,6.915937939420354e-06,9.783776311543087e-06,1.2657754624475273e-05,Unknown
0.058673077000000795,3.464298005932195e-05,1.0071089628591728e-05,1.9964753017014754e-05,6.925792040152281e-06,9.762494056625932e-06,1.271912484893707e-05,Unknown
0.05919230800000008,3.490156720503087e-05,1.013272544701924e-05,2.0002234895092092e-05,6.932339072035575e-06,9.68998325774994e-06,1.2792447983523613e-05,Unknown
0.059711538000000175,3.510754851846683e-05,1.0173943577385763e-05,2.004485265240695e-05,6.928086440114217e-06,9.63101797965613e-06,1.2843750598385311e-05,Unknown
0.06023076900000035,3.5155492431460786e-05,1.018599150214748e-05,2.007332414602626e-05,6.917619763140476e-06,9.616526500071025e-06,1.286269036699576e-05,Unknown
0.060750000000000526,3.514815899699056e-05,1.0187784062682964e-05,2.0075376785155868e-05,6.905081787063157e-06,9.612344583500287e-06,1.286209245519552e-05,Unknown
0.0612692310000007,3.515677768569678e-05,1.0189438348117876e-05,2.0056080793481045e-05,6.909828065278809e-06,9.602397755684687e-06,1.287737073575002e-05,Unknown
0.06178846199999999,3.5181929745439865e-05,1.0192059498599984e-05,2.002916028415213e-05,6.927295469170051e-06,9.575917852831066e-06,1.2904956768361227e-05,Unknown
0.06230769200000008,3.51804761689884e-05,1.0181032543886271e-05,2.000203419846806e-05,6.932662774780058e-06,9.555454410361404e-06,1.291200582252407e-05,Unknown
0.06282692300000026,3.506735825260898e-05,1.0136461306974027e-05,1.997104655793331e-05,6.932704520878674e-06,9.55650509654408e-06,1.2909957187245948e-05,Unknown
0.06334615400000043,3.4893217631483445e-05,1.0067841485609368e-05,1.992264878437468e-05,6.931203396538591e-06,9.54513487151244e-06,1.2910056528371334e-05,Unknown
0.06386538500000061,3.4778240512322506e-05,9.994754169646747e-06,1.9842790744495067e-05,6.932100052231719e-06,9.535274594990873e-06,1.291032083363754e-05,Unknown
0.0643846150000007,3.472156188781342e-05,9.919658861518794e-06,1.97387320422152e-05,6.957670523620794e-06,9.531797110030546e-06,1.2919772730806986e-05,Unknown
0.06490384599999999,3.465603875573693e-05,9.851723477468803e-06,1.963863666365242e-05,6.999125580706514e-06,9.478419245932007e-06,1.2934504608729508e-05,Unknown
0.06542307700000016,3.452524287887765e-05,9.815279097833056e-06,1.95584384767716e-05,7.03312536521578e-06,9.40749956357026e-06,1.2955112939287224e-05,Unknown
0.06594230800000034,3.4350997074649334e-05,9.815708303391188e-06,1.949061165712969e-05,7.056380739633587e-06,9.386143485142424e-06,1.2996857698387296e-05,Unknown
0.06646153800000043,3.423744919760841e-05,9.8292636411464e-06,1.942711014054045e-05,7.067345115092768e-06,9.386140410268197e-06,1.3061947126814423e-05,Unknown
0.0669807690000006,3.42325852308727e-05,9.84002252309958e-06,1.938003517443951e-05,7.064747662174508e-06,9.385022644408952e-06,1.3122115307081196e-05,Unknown
0.06750000000000078,3.4323738401902424e-05,9.853467433867494e-06,1.937013254503395e-05,7.054498217532035e-06,9.387210874053769e-06,1.3166293505104853e-05,Unknown
0.06801923100000007,3.4518282768026087e-05,9.874742812113135e-06,1.939268988216956e-05,7.039014137016638e-06,9.384770313564494e-06,1.3208438038125886e-05,Unknown
0.06853846200000024,3.475759159105188e-05,9.895775870508265e-06,1.9422916313656565e-05,7.022215382419152e-06,9.410670287460344e-06,1.3238532380789926e-05,Unknown
0.06905769200000034,3.492485130036705e-05,9.908290352421286e-06,1.9449598344118464e-05,7.010709151074686e-06,9.471305077733385e-06,1.3238364705167382e-05,Unknown
0.06957692300000051,3.500012361183688e-05,9.91658923880611e-06,1.947557712458387e-05,7.001425547800112e-06,9.50293104399053e-06,1.3346865902998886e-05,Unknown
0.07009615400000069,3.504124166367554e-05,9.92443869097236e-06,1.9505663678690967e-05,6.9956575728858e-06,9.502853951500182e-06,1.3714342305976364e-05,Unknown
0.07061538499999997,3.508767550216824e-05,9.919736236651184e-06,1.953845280539825e-05,6.995826887792363e-06,9.508190664644964e-06,1.4130921748536378e-05,Unknown
0.07113461500000007,3.511226481211656e-05,9.86555148925376e-06,1.955881687088872e-05,6.999846482317728e-06,9.49488548963667e-06,1.434033307303678e-05,Unknown
0.07165384600000024,3.502174209453271e-05,9.758123897304727e-06,1.9556184068964312e-05,7.016218312489397e-06,9.48160206806253e-06,1.4375609768985967e-05,Unknown
0.07217307700000042,3.483284179403002e-05,9.67501862705266e-06,1.954266915172495e-05,7.036221749157251e-06,9.501353496653091e-06,1.437785083177202e-05,Unknown
0.0726923080000006,3.4683106436706406e-05,9.659094637669776e-06,1.953359661918105e-05,7.039596149768031e-06,9.513210219405038e-06,1.4423439595854658e-05,Unknown
0.07321153800000069,3.460486737232319e-05,9.667288452810272e-06,1.952137462893026e-05,7.039211933916444e-06,9.51284893224907e-06,1.4502738937954251e-05,Unknown
0.07373076899999997,3.453939784431532e-05,9.661464574976463e-06,1.9479874030556244e-05,7.050530279043262e-06,9.5044483525029e-06,1.4551940375494932e-05,Unknown
0.07425000000000015,3.442219487847629e-05,9.622920621383154e-06,1.940000807141994e-05,7.0670228110637605e-06,9.487562673295172e-06,1.4555674569725654e-05,Unknown
0.07476923100000032,3.422257546757564e-05,9.568741671097612e-06,1.930359610040337e-05,7.085786922085113e-06,9.505582423668631e-06,1.456357651499462e-05,Unknown
0.0752884620000005,3.406030906546901e-05,9.556723912869866e-06,1.9210966036250737e-05,7.114700460628727e-06,9.51899057983091e-06,1.4575885263480745e-05,Unknown
0.07580769200000059,3.4054083429676514e-05,9.589376947941344e-06,1.912537483158187e-05,7.165182792634907e-06,9.481060148998928e-06,1.4574081306689144e-05,Unknown
0.07632692300000077,3.4130307419582825e-05,9.62163374426487e-06,1.9048758011380245e-05,7.222064058921526e-06,9.464067703773612e-06,1.459585850788861e-05,Unknown
0.07684615400000006,3.419324511717395e-05,9.64492070812815e-06,1.899678217365813e-05,7.258362606720755e-06,9.48687281688855e-06,1.4642556634789397e-05,Unknown
0.07736538500000023,3.423096474168036e-05,9.661052031085249e-06,1.898822828219845e-05,7.28869431298747e-06,9.503175037077176e-06,1.466052836730564e-05,Unknown
0.07788461500000032,3.426933156740614e-05,9.674265121439269e-06,1.901832629213625e-05,7.335084019583929e-06,9.506696808588636e-06,1.466258406978757e-05,Unknown
0.0784038460000005,3.434883359160555e-05,9.714110330716575e-06,1.9067360652614983e-05,7.3939938744217795e-06,9.474751404010828e-06,1.4709125991354217e-05,Unknown
0.07892307700000067,3.4446900821654055e-05,9.782374644821538e-06,1.912457512820836e-05,7.458918300221308e-06,9.422790088842037e-06,1.4786007185657052e-05,Unknown
0.07944230800000085,3.45209672921268e-05,9.843404716510736e-06,1.9185565588006212e-05,7.515250291933966e-06,9.413095292631671e-06,1.4835577514034535e-05,Unknown
0.07996153800000005,3.459859233012157e-05,9.874887691168363e-06,1.9238578968611092e-05,7.550068174559843e-06,9.429550706563658e-06,1.4849176159696117e-05,Unknown
0.08048076900000023,3.46824679900562e-05,9.875686689144525e-06,1.9272464493411414e-05,7.572890622108456e-06,9.428510684812225e-06,1.4849822557018568e-05,Unknown
0.0810000000000004,3.471994697113295e-05,9.868330515392391e-06,1.9290471725754636e-05,7.590965440793521e-06,9.42084375759911e-06,1.4849173455483976e-05,Unknown
0.08151923100000058,3.4702465287751315e-05,9.885209989176265e-06,1.9298722971357315e-05,7.592504523513246e-06,9.419191177348392e-06,1.484940222953356e-05,Unknown
0.08203846200000076,3.465029737446775e-05,9.916274543641034e-06,1.92949775971158e-05,7.569972161050088e-06,9.40969980653669e-06,1.48505399721441e-05,Unknown
0.08255769200000085,3.457213292490455e-05,9.928867781186727e-06,1.927644000068596e-05,7.528437048524801e-06,9.392451740975945e-06,1.4850594313426715e-05,Unknown
0.08307692300000014,3.446561544794654e-05,9.91838377668014e-06,1.9248899076953948e-05,7.476182986134825e-06,9.380296865609196e-06,1.4849991297067056e-05,Unknown
0.08359615400000031,3.429707900535324e-05,9.89340231848198e-06,1.9215190551921215e-05,7.433213953533279e-06,9.383867712600971e-06,1.4851933269404e-05,Unknown
0.08411538500000049,3.410218759493366e-05,9.883110516286047e-06,1.916759157462692e-05,7.415761648443231e-06,9.399756184016989e-06,1.4854491840549086e-05,Unknown
0.08463461500000058,3.4011963434578105e-05,9.92528075987836e-06,1.9103216225743043e-05,7.4152397144416434e-06,9.385743549474862e-06,1.4853969476208292e-05,Unknown
0.08515384600000075,3.402505689301221e-05,9.989790105167416e-06,1.9037592669961943e-05,7.417325235118196e-06,9.343843285456411e-06,1.4853174697427207e-05,Unknown
0.08567307700000004,3.403278488600073e-05,1.0026191482839267e-05,1.899231081207832e-05,7.414925084384095e-06,9.317880692939265e-06,1.4853891706478355e-05,Unknown
0.08619230800000022,3.399817918186395e-05,1.0040388444329996e-05,1.896738853703751e-05,7.412326823578237e-06,9.30089856426003e-06,1.48538190634053e-05,Unknown
0.08671153800000031,3.392706126342763e-05,1.005625981306851e-05,1.894667104703164e-05,7.412959916386366e-06,9.278573062320331e-06,1.4853783832352725e-05,Unknown
0.08723076900000049,3.391447608896134e-05,1.0093419474350442e-05,1.892590800046769e-05,7.409227352671165e-06,9.24028179598838e-06,1.4855666915208414e-05,Unknown
0.08775000000000066,3.403723015562584e-05,1.0144571022024115e-05,1.892110686257552e-05,7.41027554953412e-06,9.188296547624616e-06,1.4859928650255318e-05,Unknown
0.08826923100000084,3.416172325987283e-05,1.0170291193768272e-05,1.8947650203077225e-05,7.421393586693817e-06,9.160207325618537e-06,1.4867288619483368e-05,Unknown
0.08878846200000012,3.419145992689151e-05,1.0168851967260354e-05,1.8997520428696707e-05,7.419451133082617e-06,9.158021034507784e-06,1.4878027558282417e-05,Unknown
0.08930769200000022,3.4189163999205235e-05,1.0169288740994404e-05,1.9050461463171053e-05,7.405101143407155e-06,9.159262518196265e-06,1.4887529182561494e-05,Unknown
0.08982692300000039,3.4192426250664025e-05,1.0172049987256102e-05,1.9096583376253017e-05,7.40207843655958e-06,9.1498672279573e-06,1.4889171065605748e-05,Unknown
0.09034615400000057,3.420115632403951e-05,1.0160165356192508e-05,1.913857541537673e-05,7.423647023263993e-06,9.112136969534344e-06,1.4891804669645672e-05,Unknown
0.09086538500000074,3.417339903857257e-05,1.0116310119971218e-05,1.918178216216038e-05,7.479366045207879e-06,9.079600911554717e-06,1.4908668838830594e-05,Unknown
0.09138461500000084,3.4069482845994675e-05,1.0051556287993604e-05,1.922344416100136e-05,7.553105114967413e-06,9.07999934803816e-06,1.4934160172254064e-05,Unknown
0.09190384600000012,3.3956827719314386e-05,1.0014081376435236e-05,1.924738066264845e-05,7.607768042550995e-06,9.064952380739322e-06,1.4956127633606294e-05,Unknown
0.0924230770000003,3.38955116238217e-05,1.002216245201306e-05,1.9234902464969456e-05,7.633686231033967e-06,9.037660319655491e-06,1.4966671174512285e-05,Unknown
0.09294230800000047,3.3853967265838114e-05,1.005112134929236e-05,1.9184199798432527e-05,7.646816641487814e-06,9.047560672980176e-06,1.4965602016834014e-05,Unknown
0.09346153800000057,3.37817396117104e-05,1.0075685481717986e-05,1.9112006289506597e-05,7.660406057422063e-06,9.072950470128962e-06,1.4976772438898086e-05,Unknown
0.09398076900000074,3.364839382738289e-05,1.0080414356762713e-05,1.9036335811469603e-05,7.678975268707828e-06,9.085605654167211e-06,1.502226398497624e-05,Unknown
0.09450000000000003,3.347831545202758e-05,1.0065471675941494e-05,1.8965273877308645e-05,7.701736472396244e-06,9.079439585472366e-06,1.506896783591016e-05,Unknown
0.0950192310000002,3.334271813170929e-05,1.0046678183166804e-05,1.8901748668360804e-05,7.731351984504368e-06,9.037632620888332e-06,1.5082782167215423e-05,Unknown
0.09553846200000038,3.327070942671005e-05,1.0035521975520584e-05,1.8851554427280263e-05,7.77725679662076e-06,9.006804294694806e-06,1.508152924407263e-05,Unknown
0.09605769200000047,3.3269858075010625e-05,1.0036463089086224e-05,1.881961485246009e-05,7.833931540949797e-06,9.017896814547688e-06,1.5086318663641357e-05,Unknown
0.09657692300000065,3.33575920229388e-05,1.0040011817820831e-05,1.8807993335682075e-05,7.873659969350182e-06,9.000152807382111e-06,1.5096627807295314e-05,Unknown
0.09709615400000082,3.347509973429892e-05,1.002436128719059e-05,1.882389802026966e-05,7.887462958717082e-06,8.944518101438887e-06,1.510244398361437e-05,Unknown
0.09761538500000011,3.3545551556566124e-05,1.0002345606211128e-05,1.8875668488474687e-05,7.893124736583357e-06,8.908479513621432e-06,1.5102026711108096e-05,Unknown
0.0981346150000002,3.357825411419233e-05,9.996612777565784e-06,1.896805453852927e-05,7.906670762079362e-06,8.88282976062062e-06,1.5131908605332545e-05,Unknown
0.09865384600000038,3.3615270289533725e-05,9.997035359268955e-06,1.9089553011358765e-05,7.944391962854959e-06,8.85119453423413e-06,1.5257382673718754e-05,Unknown
0.09917307700000055,3.372340175934601e-05,9.997474435826516e-06,1.92075298479782e-05,7.99652665015709e-06,8.799704579204706e-06,1.5508171117258134e-05,Unknown
0.09969230800000073,3.389108938069568e-05,9.982648917015016e-06,1.930523056137509e-05,8.02187687823668e-06,8.708278642115634e-06,1.5873090771628307e-05,Unknown
0.10021153800000082,3.395516331305784e-05,9.949577638996728e-06,1.939293816920348e-05,8.016733333461897e-06,8.64484818701095e-06,1.6320421059055142e-05,Unknown
0.10073076900000011,3.388553901715085e-05,9.959506481340463e-06,1.947855456658203e-05,8.01082400317927e-06,8.639811539352496e-06,1.6731618088884622e-05,Unknown
0.10125000000000028,3.381831248042397e-05,1.0017107885254196e-05,1.955667352778696e-05,8.012508431815752e-06,8.635838078619831e-06,1.6930752894033527e-05,Unknown
0.10176923100000046,3.379137849826648e-05,1.0046420549554984e-05,1.961341134806158e-05,8.018115649493312e-06,8.653321143209683e-06,1.694472862604157e-05,Unknown
0.10228846200000064,3.378004655078165e-05,1.0045907527366718e-05,1.96368526922894e-05,8.026850673756951e-06,8.697492709775294e-06,1.696378992017856e-05,Unknown
0.10280769200000073,3.3729183902784394e-05,1.003893143269802e-05,1.9630677331883784e-05,8.03726338300986e-06,8.716135308628538e-06,1.6996957540315733e-05,Unknown
0.10332692300000001,3.355861821536116e-05,1.0005343719145251e-05,1.9610942847824185e-05,8.050619453141887e-06,8.717070084612269e-06,1.7001130039582518e-05,Unknown
0.10384615400000019,3.3349092057326973e-05,9.969309345144263e-06,1.9594624838359563e-05,8.070021852126868e-06,8.699070964883959e-06,1.700206585060865e-05,Unknown
0.10436538500000037,3.3239919562670386e-05,9.956958280918045e-06,1.9585839368788108e-05,8.091782241953139e-06,8.665664481503369e-06,1.7053872567442428e-05,Unknown
0.10488461500000046,3.321868138485675e-05,9.9515506361266e-06,1.9568039975923237e-05,8.102241083170652e-06,8.673221384040857e-06,1.734723149442378e-05,Unknown
0.10540384600000063,3.321181430803854e-05,9.94373509736948e-06,1.9533368521098505e-05,8.096048642971209e-06,8.730476175225685e-06,1.7889299587386604e-05,Unknown
0.10592307700000081,3.31777590116518e-05,9.9340090465549e-06,1.949977218753951e-05,8.08215166230426e-06,8.78683626090368e-06,1.839218485189478e-05,Unknown
0.1064423080000001,3.31238427794077e-05,9.930901829418736e-06,1.948089838176773e-05,8.066031164846142e-06,8.785357829524717e-06,1.869651001322738e-05,Unknown
0.10696153800000019,3.310240775451428e-05,9.933634598055116e-06,1.948049523690402e-05,8.050539237066011e-06,8.71465453902551e-06,1.886174684074882e-05,Unknown
0.10748076900000036,3.313863321575994e-05,9.928283831319335e-06,1.95126910610952e-05,8.044196943484564e-06,8.639132705898072e-06,1.897547397585155e-05,Unknown
0.10800000000000054,3.324786182094737e-05,9.912070480134096e-06,1.959469895030713e-05,8.052067595990234e-06,8.610919952533557e-06,1.907464422243524e-05,Unknown
0.10851923100000072,3.344942608933859e-05,9.898162036224987e-06,1.971043960833433e-05,8.065978736365662e-06,8.608211845737109e-06,1.9156728810358764e-05,Unknown
0.109038462,3.366461096584449e-05,9.89718562297594e-06,1.981222066596476e-05,8.077977579606258e-06,8.611260228933621e-06,1.921065690138773e-05,Unknown
0.1095576920000001,3.3788133473246e-05,9.897586802586989e-06,1.9877709503640253e-05,8.091327637320548e-06,8.625193706777724e-06,1.924146771513549e-05,Unknown
0.11007692300000027,3.3830877721351885e-05,9.892586121879997e-06,1.9923282390636058e-05,8.11050730754885e-06,8.638041233062653e-06,1.925951484235838e-05,Unknown
0.11059615400000045,3.385721059218142e-05,9.887682762061154e-06,1.997395285391894e-05,8.134282556505312e-06,8.637477261006964e-06,1.9262561122502544e-05,Unknown
0.11111538500000062,3.390749767391981e-05,9.879666912448463e-06,2.0045783580440624e-05,8.155475807803165e-06,8.630302377303355e-06,1.9275422774973542e-05,Unknown
0.11163461500000071,3.394929035700779e-05,9.859590908202035e-06,2.0128319417057756e-05,8.174464839580266e-06,8.644101291251093e-06,1.952129125169847e-05,Unknown
0.112153846,3.3864938506861364e-05,9.822832912528809e-06,2.0190199441931244e-05,8.200933502275377e-06,8.722322378875784e-06,2.04704572816347e-05,Unknown
0.11267307700000018,3.366618656535401e-05,9.8162303500421e-06,2.0213277329701167e-05,8.246228672617241e-06,8.853800194263842e-06,2.2217750572785948e-05,Unknown
0.11319230800000035,3.3513530430932585e-05,9.875593415640107e-06,2.020161909528003e-05,8.318700055405301e-06,8.968247827230052e-06,2.398785849980285e-05,Unknown
0.11371153800000044,3.344436816949144e-05,9.9395625641808e-06,2.0165722614437103e-05,8.402612082201884e-06,9.038764037279831e-06,2.4962742533675987e-05,Unknown
0.11423076900000062,3.338912240111792e-05,9.97151052321314e-06,2.0112900731008107e-05,8.469139329189597e-06,9.091020098246287e-06,2.5167064497759813e-05,Unknown
0.1147500000000008,3.32915109280528e-05,9.984317157039492e-06,2.005501783287433e-05,8.512557168367988e-06,9.161557082069352e-06,2.517134543985483e-05,Unknown
0.11526923100000008,3.313594598559396e-05,9.976257025008162e-06,2.0011020808571167e-05,8.544073881095764e-06,9.233428760463483e-06,2.535165026530933e-05,Unknown
0.11578846200000026,3.3033476960598445e-05,9.98520809618181e-06,1.998624944606319e-05,8.572786574382266e-06,9.216732016106725e-06,2.5696425742784613e-05,Unknown
0.11630769200000035,3.30739401787069e-05,1.002814838723173e-05,1.9971125030188696e-05,8.60375912082568e-06,9.136184394545042e-06,2.601190078096331e-05,Unknown
0.11682692300000053,3.317292278162282e-05,1.005843642522501e-05,1.9959446406622937e-05,8.63283782385711e-06,9.139993221762358e-06,2.615854552047156e-05,Unknown
0.1173461540000007,3.3249557441872453e-05,1.0069875917527396e-05,1.9957732316301745e-05,8.654487315912253e-06,9.231300428504004e-06,2.618720703875023e-05,Unknown
0.11786538499999999,3.330091824414375e-05,1.007354668201792e-05,1.9978175807202496e-05,8.674777880941984e-06,9.30454065390921e-06,2.6198424886315285e-05,Unknown
0.11838461500000008,3.3356022506307565e-05,1.0066963880500809e-05,2.002253969057461e-05,8.703092246489659e-06,9.335844971064754e-06,2.6274668141309968e-05,Unknown
0.11890384600000026,3.346463108416946e-05,1.0065596486803589e-05,2.008669296225366e-05,8.733380634305287e-06,9.345658022819663e-06,2.654390124152002e-05,Unknown
0.11942307700000043,3.360467578234852e-05,1.0062348339449136e-05,2.0171813326094597e-05,8.744682172611603e-06,9.35774708187955e-06,2.690688373676867e-05,Unknown
0.11994230800000061,3.371481572974121e-05,1.0043333323735568e-05,2.027656555264937e-05,8.735502317261374e-06,9.386592658115378e-06,2.71144502451104e-05,Unknown
0.1204615380000007,3.3800009946455485e-05,1.0025055180132956e-05,2.0381289706737133e-05,8.728078217713956e-06,9.41555991935751e-06,2.7161745589322656e-05,Unknown
0.12098076899999999,3.386533937136673e-05,1.0021440776758311e-05,2.045354440424532e-05,8.72895858823156e-06,9.437037850831086e-06,2.716591627657449e-05,Unknown
0.12150000000000016,3.387868242963285e-05,1.0042820342315634e-05,2.0478091340649985e-05,8.72861404491622e-06,9.460394724012916e-06,2.716660753994797e-05,Unknown
0.12201923100000034,3.3842229690297644e-05,1.008398796475082e-05,2.0462938732987737e-05,8.722639657177456e-06,9.47759309300688e-06,2.7168720846647707e-05,Unknown
0.12253846200000051,3.3782454524967166e-05,1.0111545300754113e-05,2.042009525478392e-05,8.719844549521494e-06,9.480676662070587e-06,2.7176042401066516e-05,Unknown
0.1230576920000006,3.371449315636075e-05,1.0112836007128229e-05,2.0355726203678637e-05,8.71414192018151e-06,9.48042721598844e-06,2.7193456837538097e-05,Unknown
0.12357692300000078,3.363030511164599e-05,1.010582509291729e-05,2.027373466134124e-05,8.640204932092355e-06,9.480507497118549e-06,2.72324749406693e-05,Unknown
0.12409615400000007,3.348575252753461e-05,1.0124125219087893e-05,2.0186723943072505e-05,8.468023691026442e-06,9.484376080531156e-06,2.7290377245088013e-05,Unknown
0.12461538500000024,3.3322371203788164e-05,1.0196723796095254e-05,2.011242373846442e-05,8.27496900304846e-06,9.483927029852815e-06,2.73228223857874e-05,Unknown
0.12513461500000034,3.3274627821998e-05,1.0297541885285609e-05,2.005975568520477e-05,8.126504821866445e-06,9.472162396344258e-06,2.7321315591180225e-05,Unknown
0.1256538460000005,3.3320702102234146e-05,1.037174810461744e-05,2.002932002398085e-05,8.018465527140562e-06,9.5044786327616e-06,2.7382040332015413e-05,Unknown
0.1261730770000007,3.334942668408544e-05,1.0410277263076397e-05,2.001897584818396e-05,7.94048712018493e-06,9.571077530780588e-06,2.758942789932062e-05,Unknown
0.12669230799999998,3.333772827705754e-05,1.04344091965147e-05,2.002738828769354e-05,7.90445571702402e-06,9.600447845232712e-06,2.794925050813678e-05,Unknown
0.12721153800000007,3.329415360900057e-05,1.046011567278705e-05,2.0061951003799764e-05,7.902958498400744e-06,9.602753858314398e-06,2.8453194894938475e-05,Unknown
0.12773076900000024,3.331753936742364e-05,1.0495293517785728e-05,2.013743496249234e-05,7.89958365178197e-06,9.58826439896538e-06,2.901780677946497e-05,Unknown
0.12825000000000042,3.34616190942922e-05,1.051300111275637e-05,2.0256722362879213e-05,7.889505862414444e-06,9.565712022406048e-06,2.93776890478018e-05,Unknown
0.1287692310000006,3.357815615382341e-05,1.0483870611640097e-05,2.039945981668873e-05,7.892284312971786e-06,9.561396744777345e-06,2.941349377716223e-05,Unknown
0.12928846200000077,3.360520851142378e-05,1.0441393521166556e-05,2.053453429672261e-05,7.901555393688489e-06,9.559957064889784e-06,2.9526182315276304e-05,Unknown
0.12980769199999997,3.36169669194848e-05,1.0425230717650184e-05,2.0638289774309655e-05,7.904935183040811e-06,9.56259155207031e-06,2.9989343112209855e-05,Unknown
0.13032692300000015,3.364376850717609e-05,1.0421938157560922e-05,2.070403698876256e-05,7.907135837184443e-06,9.57840664142682e-06,3.0434826199229264e-05,Unknown
0.13084615400000033,3.369748089533382e-05,1.0406218254723612e-05,2.073484506191015e-05,7.912023957775008e-06,9.576909783953929e-06,3.0591803346731455e-05,Unknown
0.1313653850000005,3.371828310191001e-05,1.0375877314138291e-05,2.0732312940003047e-05,7.918438057613373e-06,9.564843063046996e-06,3.060245175821882e-05,Unknown
0.1318846150000006,3.362550514739923e-05,1.0351920888002176e-05,2.0700622763001515e-05,7.926736229411364e-06,9.567466195525257e-06,3.0605782970887374e-05,Unknown
0.13240384600000077,3.348387407226658e-05,1.0345396784863946e-05,2.06478868247374e-05,7.93745584783602e-06,9.556108780446817e-06,3.0614373760679174e-05,Unknown
0.13292307700000006,3.338503230833162e-05,1.0348797720732586e-05,2.0574893301656574e-05,7.94915508863393e-06,9.530809108323811e-06,3.061750804466596e-05,Unknown
0.13344230800000023,3.332648522641764e-05,1.0367984630546572e-05,2.0467819045943144e-05,7.955077086684628e-06,9.524740706429435e-06,3.061682737305335e-05,Unknown
0.13396153800000032,3.327497569318471e-05,1.0405279642730616e-05,2.0306569364318705e-05,7.950657436249595e-06,9.52638188301267e-06,3.0619333640623856e-05,Unknown
0.1344807690000005,3.3203936897677685e-05,1.044177006926106e-05,2.0097305664589923e-05,7.9420336367155e-06,9.525511408662584e-06,3.06214679085136e-05,Unknown
0.13500000000000068,3.3109628749018376e-05,1.0467139046356714e-05,1.9892186421743065e-05,7.936245841692347e-06,9.524101586648169e-06,3.062114113363739e-05,Unknown
0.13551923100000085,3.301936539731755e-05,1.0487922061830436e-05,1.9743276005941728e-05,7.9336907857519e-06,9.504797757674996e-06,3.0633494883739046e-05,Unknown
0.13603846200000014,3.295644900197648e-05,1.0508777124455004e-05,1.965597090944813e-05,7.932705143757778e-06,9.46729256788075e-06,3.0657463381654494e-05,Unknown
0.13655769200000023,3.2948854987303595e-05,1.0527276943103024e-05,1.96098901143064e-05,7.931716361845041e-06,9.430631501551133e-06,3.0674484579744554e-05,Unknown
0.1370769230000004,3.303320776763154e-05,1.05372666882441e-05,1.959356108823295e-05,7.933518384110673e-06,9.415892699374554e-06,3.068124378006358e-05,Unknown
0.13759615400000058,3.316705582169785e-05,1.053492317188942e-05,1.960656126912609e-05,7.939993929197956e-06,9.443371061347014e-06,3.068437407358218e-05,Unknown
0.13811538500000076,3.3271085519139385e-05,1.0525428870141149e-05,1.96429811003134e-05,7.945229398013515e-06,9.491590213020236e-06,3.068805984810641e-05,Unknown
0.13863461500000085,3.3343950180925764e-05,1.0516983469109983e-05,1.96952511914219e-05,7.943950493094322e-06,9.51580745963704e-06,3.0694254003232145e-05,Unknown
0.13915384600000014,3.342364860067845e-05,1.051032716377517e-05,1.9766165137613704e-05,7.934358683353676e-06,9.512108383252592e-06,3.0701396622475324e-05,Unknown
0.1396730770000003,3.3570418340414256e-05,1.0499598188476455e-05,1.9848916569210077e-05,7.91967415216037e-06,9.47662018042131e-06,3.070652645084082e-05,Unknown
0.1401923080000005,3.376022053363007e-05,1.0471393189539862e-05,1.991430239431003e-05,7.907746005204206e-06,9.435796950108854e-06,3.070896861746596e-05,Unknown
0.14071153800000058,3.382548337962356e-05,1.042509147187988e-05,1.9944735256461588e-05,7.904434124091709e-06,9.462708741352318e-06,3.0708732178650504e-05,Unknown
0.14123076900000076,3.374184350318087e-05,1.039355369982889e-05,1.995308090559262e-05,7.917207046868053e-06,9.529230126426792e-06,3.070521318912313e-05,Unknown
0.14175000000000004,3.365224848751478e-05,1.0393677800475845e-05,1.995510090735208e-05,7.957484079624332e-06,9.561370113402456e-06,3.069899786363987e-05,Unknown
0.14226923100000022,3.360200746765127e-05,1.0406758779663393e-05,1.9950523456023366e-05,8.026696379575955e-06,9.565853873233624e-06,3.069241545661009e-05,Unknown
0.1427884620000004,3.3546398166104295e-05,1.042103039698886e-05,1.9927028073753684e-05,8.103864562859204e-06,9.566296217596292e-06,3.068958435007043e-05,Unknown
0.1433076920000005,3.34132787333733e-05,1.043628539970661e-05,1.98765369842478e-05,8.160436598416355e-06,9.573125525607798e-06,3.069220439372937e-05,Unknown
0.14382692300000066,3.317240823599754e-05,1.0460233664003233e-05,1.980624335324693e-05,8.186836211431863e-06,9.56824663814686e-06,3.0691017503171914e-05,Unknown
0.14434615400000084,3.2945998164647674e-05,1.0499654712070203e-05,1.9727118703805628e-05,8.194147948861875e-06,9.520886896205055e-06,3.067413846868384e-05,Unknown
0.14486538500000012,3.285336301455759e-05,1.0539364089787694e-05,1.964411833443778e-05,8.198998811635637e-06,9.4674799148931e-06,3.064698743986433e-05,Unknown
0.14538461500000022,3.286235007703371e-05,1.056601807856182e-05,1.956057807380737e-05,8.212190211651321e-06,9.444524528697943e-06,3.062596214436648e-05,Unknown
0.1459038460000004,3.2896122320310935e-05,1.0585963742159837e-05,1.9480729466172e-05,8.23173901671752e-06,9.439586279503504e-06,3.061707997143185e-05,Unknown
0.14642307700000057,3.290148210715931e-05,1.0605117817830532e-05,1.94067083246628e-05,8.248950817258636e-06,9.43904865170458e-06,3.061481171551847e-05,Unknown
0.14694230800000074,3.2871976308941926e-05,1.0621114319440128e-05,1.934044594348392e-05,8.25783872847286e-06,9.419415316686794e-06,3.061324048797744e-05,Unknown
0.14746153800000084,3.287298572700609e-05,1.0629319536195432e-05,1.928856234341186e-05,8.257577493462031e-06,9.363088538300049e-06,3.06108092823736e-05,Unknown
0.14798076900000012,3.294426862487227e-05,1.0618129618151874e-05,1.9261044653264157e-05,8.254415084880509e-06,9.281315284594285e-06,3.0608919527078635e-05,Unknown
0.1485000000000003,3.308523983298255e-05,1.0574279083181069e-05,1.926617363244621e-05,8.254959622297799e-06,9.20835850866366e-06,3.060849867809003e-05,Unknown
0.14901923100000047,3.3307510451836166e-05,1.0512937647372149e-05,1.930694840415071e-05,8.257435249402464e-06,9.156544514458198e-06,3.0608525556271485e-05,Unknown
0.14953846200000065,3.35375584899304e-05,1.0463324973040688e-05,1.9377614232957693e-05,8.258029559897457e-06,9.12002393609317e-06,3.0608565104628824e-05,Unknown
0.15005769200000074,3.366075271578192e-05,1.043317834813665e-05,1.946044860751267e-05,8.258024990996265e-06,9.107945820167742e-06,3.0609058864156115e-05,Unknown
0.15057692300000003,3.3684342442939834e-05,1.0415484180018562e-05,1.9531306700851544e-05,8.257983598466695e-06,9.108884424399873e-06,3.060965321440264e-05,Unknown
0.1510961540000002,3.368016940980499e-05,1.040252311661252e-05,1.957392578491212e-05,8.258728121072209e-06,9.106869674060968e-06,3.0610069838987424e-05,Unknown
0.15161538500000038,3.3682340142421465e-05,1.0386449509517264e-05,1.95892212437172e-05,8.262266565917871e-06,9.10220522033759e-06,3.061068108301719e-05,Unknown
0.15213461500000047,3.365273851683748e-05,1.0359690928298416e-05,1.959069914573268e-05,8.261806498341003e-06,9.11716680978365e-06,3.061286269384849e-05,Unknown
0.15265384600000065,3.348569723731926e-05,1.0328445901119712e-05,1.9586044895776917e-05,8.256336845058145e-06,9.21351151185182e-06,3.061908549606868e-05,Unknown
0.15317307700000082,3.321691498549509e-05,1.03209360076375e-05,1.9570373665910236e-05,8.25428287749638e-06,9.379379396232647e-06,3.063043041739403e-05,Unknown
0.1536923080000001,3.3030991855931365e-05,1.0346695370945176e-05,1.954074379611869e-05,8.254298579438911e-06,9.512829559063872e-06,3.064405502344052e-05,Unknown
0.1542115380000002,3.295815731744668e-05,1.037804929838648e-05,1.949748351461042e-05,8.256933030294454e-06,9.59040201241017e-06,3.065436989961727e-05,Unknown
0.15473076900000038,3.291164530445502e-05,1.0396928045702617e-05,1.944152407357324e-05,8.261886166450361e-06,9.659399581488311e-06,3.065787340008859e-05,Unknown
0.15525000000000055,3.284256033139612e-05,1.0406520434522516e-05,1.9379296132906488e-05,8.260376643807894e-06,9.773115553563787e-06,3.0656147649734133e-05,Unknown
0.15576923100000073,3.274144858577711e-05,1.0420592848355194e-05,1.9318914726551e-05,8.25476762145749e-06,9.966604652595104e-06,3.0653143221864435e-05,Unknown
0.15628846200000002,3.2716977585646056e-05,1.0461638512103916e-05,1.926647139028764e-05,8.253514721027738e-06,1.014418475652565e-05,3.0652404968967354e-05,Unknown
0.1568076920000001,3.2843292113173416e-05,1.0517011392435533e-05,1.9223143704881923e-05,8.259868414984346e-06,1.0203800489177387e-05,3.0655901158453134e-05,Unknown
0.15732692300000028,3.3009344015162164e-05,1.0542113239769824e-05,1.91873064295889e-05,8.267375765504005e-06,1.020670441586391e-05,3.066184686520136e-05,Unknown
0.15784615400000046,3.3135315536459144e-05,1.0536676243373357e-05,1.9169268762606316e-05,8.262552526795206e-06,1.0217963799235073e-05,3.066624950770999e-05,Unknown
0.15836538500000064,3.323977000184292e-05,1.052961352520698e-05,1.9190397769795316e-05,8.251169374479587e-06,1.0256820872350306e-05,3.066729605871967e-05,Unknown
0.15888461500000073,3.335233516057035e-05,1.0528693036561334e-05,1.9253786019738985e-05,8.249342157582285e-06,1.033918659089761e-05,3.066506508654095e-05,Unknown
0.15940384600000002,3.349288640367525e-05,1.0534284051693534e-05,1.933889232732197e-05,8.248276363208859e-06,1.0399174774716695e-05,3.0658488430122706e-05,Unknown
0.1599230770000002,3.361186959682254e-05,1.0533289057548677e-05,1.9429694196935623e-05,8.232487725264855e-06,1.0398138084392817e-05,3.064574924441368e-05,Unknown
0.16044230800000037,3.3660420448806975e-05,1.0511350854635389e-05,1.952294053892724e-05,8.21465022332052e-06,1.0388983800031286e-05,3.062678783808537e-05,Unknown
0.16096153800000046,3.368289866517774e-05,1.048299140279115e-05,1.961067395209868e-05,8.22045018034524e-06,1.039038976174378e-05,3.0606220871904904e-05,Unknown
0.16148076900000063,3.370494977203462e-05,1.0457204057589277e-05,1.967318963545666e-05,8.244321533432999e-06,1.0388858587705775e-05,3.059320593001698e-05,Unknown
0.1620000000000008,3.369292145992596e-05,1.042351669804692e-05,1.970184263693441e-05,8.251241412725618e-06,1.0394927539510897e-05,3.0591033865544774e-05,Unknown
0.1625192310000001,3.3645769733823576e-05,1.0393452270467497e-05,1.970733674009352e-05,8.233948932686505e-06,1.0402558434333904e-05,3.058976110561789e-05,Unknown
0.16303846200000027,3.356768795642953e-05,1.038174491113065e-05,1.9696847969204175e-05,8.221430885656766e-06,1.04025432780259e-05,3.0580438021043334e-05,Unknown
0.16355769200000037,3.344692923416594e-05,1.0370916514667852e-05,1.966504670817071e-05,8.223925978859324e-06,1.0400878426759457e-05,3.056651991929753e-05,Unknown
0.16407692300000054,3.328525457494963e-05,1.0350835330838482e-05,1.9605605602707077e-05,8.226443781731461e-06,1.0386025837150043e-05,3.055352761952299e-05,Unknown
0.16459615400000072,3.3096041485071925e-05,1.033102262341214e-05,1.9535841576220247e-05,8.224617687511702e-06,1.0363081018459274e-05,3.054109159471978e-05,Unknown
0.165115385,3.297402675015447e-05,1.0326923582029244e-05,1.9485683869284874e-05,8.22195572301683e-06,1.0339194570756691e-05,3.052467307331782e-05,Unknown
0.1656346150000001,3.301258996920685e-05,1.0356916031133753e-05,1.945352336869373e-05,8.217504342412152e-06,1.0311942861545996e-05,3.05013121113809e-05,Unknown
0.16615384600000027,3.312269602892528e-05,1.0396743146587863e-05,1.9416217635236915e-05,8.211864648712165e-06,1.031556180697708e-05,3.0476533464482133e-05,Unknown
0.16667307700000045,3.318826575325838e-05,1.0412996800732918e-05,1.936483039240832e-05,8.206765950315586e-06,1.03393204665078e-05,3.0459762793932464e-05,Unknown
0.16719230800000062,3.3205838290213834e-05,1.0414700873393052e-05,1.9315043289766676e-05,8.20195421191184e-06,1.0340066553733329e-05,3.045349854416957e-05,Unknown
0.16771153800000071,3.3221217331479066e-05,1.041782095538774e-05,1.9293146572259843e-05,8.197996923235808e-06,1.034743409625712e-05,3.045308178589265e-05,Unknown
0.168230769,3.3328771324780166e-05,1.0439714522794857e-05,1.930488774940723e-05,8.197800581973378e-06,1.0360194448067152e-05,3.0454804596751245e-05,Unknown
0.16875000000000018,3.351201535962412e-05,1.0479629150933095e-05,1.933473962867905e-05,8.201469436467397e-06,1.035939591056032e-05,3.0458094824478356e-05,Unknown
0.16926923100000035,3.360455754105248e-05,1.0507951050725724e-05,1.9372899910128875e-05,8.203967151894181e-06,1.0407677792641442e-05,3.046208261086741e-05,Unknown
0.16978846200000053,3.358480642546649e-05,1.051191754787642e-05,1.942534838993401e-05,8.201272717729387e-06,1.0478422894572009e-05,3.046509068794696e-05,Unknown
0.17030769200000062,3.355660529198861e-05,1.0498942531803592e-05,1.950092861138047e-05,8.193841096498937e-06,1.0486548211706298e-05,3.04659806364876e-05,Unknown
0.1708269230000008,3.355021434315939e-05,1.046784596456362e-05,1.959155768345053e-05,8.186889334418272e-06,1.0468386686234946e-05,3.0465317983574676e-05,Unknown
0.17134615400000008,3.3541356724027965e-05,1.040111931836648e-05,1.9671429323175814e-05,8.184598298283971e-06,1.0462629017166347e-05,3.046595267036718e-05,Unknown
0.17186538500000026,3.3452606189346486e-05,1.0282786543381174e-05,1.97184822495371e-05,8.189756719391002e-06,1.0471812176031003e-05,3.046914398987239e-05,Unknown
0.17238461500000035,3.323309102329873e-05,1.0129887944217303e-05,1.9730002324448636e-05,8.207385618063068e-06,1.0506748412716978e-05,3.046836655243259e-05,Unknown
0.17290384600000053,3.298210960241222e-05,9.993632279463043e-06,1.971730250976037e-05,8.22622184419092e-06,1.0561237393544398e-05,3.0455305352116597e-05,Unknown
0.1734230770000007,3.281384486519587e-05,9.910434053072662e-06,1.9692609632901354e-05,8.232089254177867e-06,1.0671853990436848e-05,3.0435745714584076e-05,Unknown
0.173942308,3.272634649338732e-05,9.871056584570004e-06,1.966382147516586e-05,8.23270653568175e-06,1.0878905447535716e-05,3.04251258843164e-05,Unknown
0.17446153800000008,3.266921459845148e-05,9.8442822513818e-06,1.9633748841861912e-05,8.234155334574176e-06,1.1149973832515466e-05,3.0424550640080023e-05,Unknown
0.17498076900000026,3.259602804708073e-05,9.812454755915564e-06,1.9597454368898574e-05,8.233294490889823e-06,1.1415154162061856e-05,3.0424641443561483e-05,Unknown
0.17550000000000043,3.2485795585355304e-05,9.782928246710668e-06,1.9548854402642044e-05,8.23098719873106e-06,1.1612596162998704e-05,3.040129132996668e-05,Unknown
0.1760192310000006,3.237098311952926e-05,9.764690902563591e-06,1.949549179009348e-05,8.229751733508035e-06,1.1718514683242137e-05,3.027567724945998e-05,Unknown
0.17653846200000078,3.2306622737745124e-05,9.754557528583332e-06,1.9454038720301217e-05,8.225767109772896e-06,1.1750607614161662e-05,3.002549959972486e-05,Unknown
0.177057692,3.234710144164099e-05,9.754675580954216e-06,1.9430115511771266e-05,8.212631464188119e-06,1.173310448809362e-05,2.9788560341866037e-05,Unknown
0.17757692300000016,3.250651042029377e-05,9.764660005439356e-06,1.9416784954888505e-05,8.186923737997444e-06,1.169312004679935e-05,2.9653359372490115e-05,Unknown
0.17809615400000034,3.269008542791129e-05,9.770565732164577e-06,1.9408078986922005e-05,8.146117595630937e-06,1.1687638961203927e-05,2.9571894131833364e-05,Unknown
0.17861538500000051,3.280698814281706e-05,9.768616323607876e-06,1.940525053161054e-05,8.091376522602331e-06,1.1772365184064164e-05,2.9505469165798215e-05,Unknown
0.1791346150000006,3.2889020529697154e-05,9.767253022046884e-06,1.941424320935592e-05,8.039796168557535e-06,1.1934612542943342e-05,2.949031820197336e-05,Unknown
0.17965384600000078,3.299970001544799e-05,9.759681109895309e-06,1.9439383781753577e-05,8.014337524068768e-06,1.216348888296789e-05,2.9447584509644304e-05,Unknown
0.18017307700000007,3.317840433606695e-05,9.724319021867038e-06,1.947950274827063e-05,8.009117293803685e-06,1.2622967380350905e-05,2.910117939452988e-05,Unknown
0.18069230800000025,3.335551645223945e-05,9.650438582313471e-06,1.95326742903178e-05,8.004204204986889e-06,1.3683786391877953e-05,2.857999737224725e-05,Unknown
0.18121153800000034,3.336432841506274e-05,9.551726982093052e-06,1.960226422368638e-05,7.99288827869255e-06,1.5566151006404334e-05,2.832681986429325e-05,Unknown
0.1817307690000005,3.3223837335540975e-05,9.474375709994907e-06,1.9688385460109183e-05,7.974106572283308e-06,1.786683426402106e-05,2.8308719517960445e-05,Unknown
0.1822500000000007,3.310057422252671e-05,9.460572303965089e-06,1.977335378471812e-05,7.96619547636039e-06,1.991147205111028e-05,2.830660979727683e-05,Unknown
0.18276923099999998,3.3034717069781736e-05,9.478992577397212e-06,1.9825897979926285e-05,7.989700728777633e-06,2.1428743459082372e-05,2.8308135020044523e-05,Unknown
0.18328846200000015,3.297974586345264e-05,9.471802102193546e-06,1.983158095117863e-05,8.017717121299929e-06,2.255828857236064e-05,2.830724398158434e-05,Unknown
0.18380769200000024,3.285320566231246e-05,9.422248558397467e-06,1.9805585460463984e-05,8.01902951959843e-06,2.3502581616041603e-05,2.8284754277484207e-05,Unknown
0.18432692300000042,3.258822613478706e-05,9.352130528726883e-06,1.976613272801313e-05,8.01074521030229e-06,2.435317461877954e-05,2.825744915155534e-05,Unknown
0.1848461540000006,3.2319508484329824e-05,9.330689809465944e-06,1.972210607315914e-05,8.010192485875796e-06,2.5112106428345228e-05,2.82388559266091e-05,Unknown
0.18536538500000077,3.221978801195452e-05,9.38628405934515e-06,1.967850677294132e-05,8.010952485779694e-06,2.5791504014815995e-05,2.823181512895957e-05,Unknown
0.18588461499999998,3.224547200105865e-05,9.453303096329874e-06,1.9638529006700804e-05,8.009215964028362e-06,2.6434032673211987e-05,2.823182129515045e-05,Unknown
0.18640384600000015,3.228360075524772e-05,9.483416044357786e-06,1.9606603741849363e-05,7.999417807543299e-06,2.7023434418589604e-05,2.8225065627644112e-05,Unknown
0.18692307700000033,3.2285967980761674e-05,9.478195010365869e-06,1.95841886193718e-05,7.985324060592888e-06,2.7445264085388007e-05,2.821330839919265e-05,Unknown
0.1874423080000005,3.226022380520336e-05,9.457395503208698e-06,1.956554290612832e-05,7.980665401603146e-06,2.76228208780892e-05,2.821104919931174e-05,Unknown
0.1879615380000006,3.226842612429345e-05,9.447221618699644e-06,1.9546385103168737e-05,7.986989259899888e-06,2.764289698982156e-05,2.821370579435652e-05,Unknown
0.18848076900000077,3.235228890727496e-05,9.45156694557328e-06,1.9536316968370805e-05,8.006795668697904e-06,2.7650530236985105e-05,2.8217622758340357e-05,Unknown
0.18900000000000006,3.252080471779717e-05,9.463408703841784e-06,1.9557535255511333e-05,8.029764841791293e-06,2.7715839797174755e-05,2.8223926383197015e-05,Unknown
0.18951923100000023,3.276052149499511e-05,9.482681242192017e-06,1.9618778294639983e-05,8.025573278629229e-06,2.7842347009193483e-05,2.822637796573574e-05,Unknown
0.1900384620000004,3.29717884791741e-05,9.493149905563464e-06,1.969655845056088e-05,7.989730035436185e-06,2.8011790567509785e-05,2.82251611848714e-05,Unknown
0.1905576920000005,3.306311216397112e-05,9.48374246664684e-06,1.976096165301364e-05,7.946141621171843e-06,2.820989462704585e-05,2.8221048682598025e-05,Unknown
0.19107692300000068,3.307129592537304e-05,9.477280165233568e-06,1.9804223388027588e-05,7.917772794820116e-06,2.8453864657009447e-05,2.820836140005888e-05,Unknown
0.19159615400000085,3.306887247321056e-05,9.484388321444923e-06,1.9832754612589594e-05,7.923493818857649e-06,2.8804782413508867e-05,2.8184558518355063e-05,Unknown
0.19211538500000014,3.308718603589236e-05,9.484838679210669e-06,1.9848034988518265e-05,7.956479749915063e-06,2.9328415839498785e-05,2.8160792656420764e-05,Unknown
0.19263461500000023,3.3088798091405855e-05,9.470606791494405e-06,1.9843766840982328e-05,7.979246158004691e-06,2.9997801648491828e-05,2.8143446523916676e-05,Unknown
0.1931538460000004,3.295340138125632e-05,9.451419327705647e-06,1.9821117092856555e-05,7.982138076051587e-06,3.065859003495706e-05,2.812815193643788e-05,Unknown
0.19367307700000058,3.2704437577997115e-05,9.462826773179106e-06,1.9792613239846483e-05,7.978295389709724e-06,3.115840826169826e-05,2.812049291824732e-05,Unknown
0.19419230800000076,3.253089424256253e-05,9.544621544130874e-06,1.9765996930206866e-05,7.967377239444572e-06,3.148065608770134e-05,2.812890023300191e-05,Unknown
0.19471153800000085,3.246621595366302e-05,9.668283280563467e-06,1.9740018426040032e-05,7.960858319768448e-06,3.1715154364289773e-05,2.808685765069059e-05,Unknown
0.19523076900000014,3.2415062839866246e-05,9.767160722788626e-06,1.9708895875386945e-05,7.965611311979362e-06,3.1945495446384595e-05,2.7918549346789784e-05,Unknown
0.1957500000000003,3.232786862640492e-05,9.821116650198108e-06,1.9669688710691352e-05,7.968644203027633e-06,3.2219627974750967e-05,2.7718683618083763e-05,Unknown
0.1962692310000005,3.220328879330644e-05,9.86023755695751e-06,1.962887584378812e-05,7.964704384409736e-06,3.255505269883097e-05,2.76195245341204e-05,Unknown
0.19678846200000066,3.2145254519415456e-05,9.92209274697148e-06,1.959526128910818e-05,7.95456498172536e-06,3.2897743171924343e-05,2.7611145172020323e-05,Unknown
0.19730769200000076,3.2234799580315244e-05,1.002021842185064e-05,1.957517838486463e-05,7.949331905198815e-06,3.317258650422637e-05,2.7621203410946617e-05,Unknown
0.19782692300000004,3.237915088029259e-05,1.0136345249695345e-05,1.95799994976071e-05,7.961251913351304e-06,3.337628944902952e-05,2.7608014101136637e-05,Unknown
0.19834615400000022,3.2488409021226886e-05,1.0252185369193908e-05,1.962959434389671e-05,7.974275431865836e-06,3.354153078223303e-05,2.7574981915505093e-05,Unknown
0.1988653850000004,3.256324010123875e-05,1.0370746930125209e-05,1.9735587527846788e-05,7.970302551770824e-06,3.368531362030474e-05,2.7555554989814244e-05,Unknown
0.1993846150000005,3.262946402870488e-05,1.0499289382330036e-05,1.9886233480333343e-05,7.956133124276166e-06,3.380280088328289e-05,2.755837641212623e-05,Unknown
0.19990384600000066,3.271085087860591e-05,1.0641878750385945e-05,2.0062394982194384e-05,7.93934875040718e-06,3.387534099510145e-05,2.755730359858372e-05,Unknown
0.20042307700000084,3.2782824255883124e-05,1.0779402923594256e-05,2.025230262500667e-05,7.913448999819835e-06,3.3911791730108246e-05,2.7551843042555125e-05,Unknown
0.20094230800000012,3.282345453764001e-05,1.087972012267163e-05,2.0432242756032663e-05,7.865223967279456e-06,3.393604286267557e-05,2.7551981728858347e-05,Unknown
0.20146153800000022,3.286456218328047e-05,1.0946221042496247e-05,2.0573755598234844e-05,7.79365541508724e-06,3.3945396309937424e-05,2.7539494331453357e-05,Unknown
0.2019807690000004,3.289420974755538e-05,1.0994672523356456e-05,2.067478620669705e-05,7.719146739560263e-06,3.39396834388059e-05,2.7514593812994552e-05,Unknown
0.20250000000000057,3.286984540094174e-05,1.1019496873966156e-05,2.075692259734323e-05,7.656723273010283e-06,3.393629897957585e-05,2.750510047351471e-05,Unknown
0.20301923100000074,3.280363690223147e-05,1.101599556028408e-05,2.083775619542485e-05,7.601291611625335e-06,3.393675889280372e-05,2.750398718980397e-05,Unknown
0.20353846200000003,3.2712669234977414e-05,1.098446608733811e-05,2.0898423819637428e-05,7.54340252951778e-06,3.393376970466061e-05,2.747932982522996e-05,Unknown
0.20405769200000012,3.2612716889773915e-05,1.0926619301365829e-05,2.0910018950835216e-05,7.480420614609876e-06,3.392777319145081e-05,2.7438456593423458e-05,Unknown
0.2045769230000003,3.250716060481138e-05,1.086231212869444e-05,2.0882025344359696e-05,7.415058564806071e-06,3.3920327880319867e-05,2.7412021863098752e-05,Unknown
0.20509615400000047,3.236680164352038e-05,1.0819070292738126e-05,2.084208011146642e-05,7.351744321585722e-06,3.391740089602736e-05,2.740460792061661e-05,Unknown
0.20561538500000065,3.227899734650978e-05,1.0807024888685629e-05,2.0803455126715e-05,7.297969080380477e-06,3.392082916691041e-05,2.7403804362391724e-05,Unknown
0.20613461500000074,3.237582988970076e-05,1.080677800752998e-05,2.076662049516752e-05,7.260384300338032e-06,3.3919721058200526e-05,2.7403755302553437e-05,Unknown
0.20665384600000003,3.256666021573097e-05,1.0786166857060112e-05,2.0733424309202824e-05,7.242061122089758e-06,3.391450022148763e-05,2.7403603134335795e-05,Unknown
0.2071730770000002,3.2698232683322315e-05,1.075009688356874e-05,2.071226227479457e-05,7.23920304203032e-06,3.391666980123834e-05,2.7402946267020425e-05,Unknown
0.20769230800000038,3.2767475855712974e-05,1.0727057961441796e-05,2.0712227872066672e-05,7.241540870811716e-06,3.3921834246237984e-05,2.7402697311390948e-05,Unknown
0.20821153800000047,3.283533556377104e-05,1.071694433204645e-05,2.0740431008469937e-05,7.239841156859356e-06,3.3922725182273265e-05,2.7402892048140216e-05,Unknown
0.20873076900000065,3.299320361621096e-05,1.0707010441894891e-05,2.0797487185568994e-05,7.2191045286921e-06,3.391816152474387e-05,2.7401949060749908e-05,Unknown
0.20925000000000082,3.3235952550379444e-05,1.0674773752278984e-05,2.0870286301205337e-05,7.182024033738985e-06,3.3907535267419803e-05,2.740086163532324e-05,Unknown
0.2097692310000001,3.339541550694032e-05,1.0602673757256048e-05,2.093876898673745e-05,7.158948880705428e-06,3.390153252689822e-05,2.7401330821881863e-05,Unknown
0.2102884620000003,3.3425133309172253e-05,1.0530365477504611e-05,2.0989926811774477e-05,7.155562015067928e-06,3.390343249750965e-05,2.7402454532123775e-05,Unknown
0.21080769200000038,3.343072449507926e-05,1.049640445231082e-05,2.102204901548626e-05,7.155758976736403e-06,3.390405151959812e-05,2.7404800063637076e-05,Unknown
0.21132692300000055,3.345936069624854e-05,1.0495945086775089e-05,2.103687490746675e-05,7.157478363409326e-06,3.390403519178028e-05,2.7409657517385405e-05,Unknown
0.21184615400000073,3.35136987494731e-05,1.052255222953843e-05,2.1030035849334847e-05,7.164531584088246e-06,3.390209322625209e-05,2.7414961560963677e-05,Unknown
0.21236538500000002,3.354311477589856e-05,1.0536479543474314e-05,2.1001482472407062e-05,7.18121730824258e-06,3.3899784023197786e-05,2.741870939316964e-05,Unknown
0.2128846150000001,3.3480056303122705e-05,1.0503656072555952e-05,2.0958933083072963e-05,7.2001399926703005e-06,3.3908520148566506e-05,2.74214714180802e-05,Unknown
0.21340384600000029,3.338381436457168e-05,1.0470123214041534e-05,2.0906131675489447e-05,7.205303638181267e-06,3.392189235575135e-05,2.7423414390478933e-05,Unknown
0.21392307700000046,3.333457598213226e-05,1.0466481785832467e-05,2.0849301342461373e-05,7.2024884497053286e-06,3.392689114516299e-05,2.742360834610742e-05,Unknown
0.21444230800000064,3.332374567941641e-05,1.0465301109202815e-05,2.0798677266764185e-05,7.201313932386511e-06,3.392648671708089e-05,2.742438518141409e-05,Unknown
0.21496153800000073,3.333164143533738e-05,1.0463080068217964e-05,2.0756858858360224e-05,7.195611972764318e-06,3.3929589038032705e-05,2.7430529183830216e-05,Unknown
0.21548076900000002,3.33303193468559e-05,1.0479173334050591e-05,2.071886775926144e-05,7.1718965011242206e-06,3.394558702253235e-05,2.7439264413450725e-05,Unknown
0.2160000000000002,3.329178741354166e-05,1.0526900443515127e-05,2.0678313400153008e-05,7.1164340374129886e-06,3.3981299316417475e-05,2.7444597364993463e-05,Unknown
0.21651923100000037,3.3240054284871656e-05,1.06073639277284e-05,2.0631586927037743e-05,7.049993654122372e-06,3.403006218052154e-05,2.744802113320137e-05,Unknown
0.21703846200000054,3.3200208479027153e-05,1.0682117785717717e-05,2.0582426839846665e-05,7.016467020308456e-06,3.4078472188749447e-05,2.7452229404641385e-05,Unknown
0.21755769200000064,3.3198102309194905e-05,1.0709400215908806e-05,2.0542646288223985e-05,7.012502674893091e-06,3.412747874052734e-05,2.745809140952259e-05,Unknown
0.2180769230000008,3.3285838272526945e-05,1.06992759869402e-05,2.052284262291145e-05,7.00376060802203e-06,3.419559668459358e-05,2.7465263337442437e-05,Unknown
0.2185961540000001,3.342537055648225e-05,1.06867168710596e-05,2.052366324927031e-05,6.981880881870418e-06,3.4308405686598035e-05,2.746232473224525e-05,Unknown
0.21911538500000027,3.352050314119727e-05,1.069961641814461e-05,2.0539819403840787e-05,6.949255584297988e-06,3.446104814992743e-05,2.7439180105330077e-05,Unknown
0.21963461500000037,3.3568987759481285e-05,1.075094111160969e-05,2.0566138675328608e-05,6.907320467289151e-06,3.4601743333608285e-05,2.74155205790996e-05,Unknown
0.22015384600000054,3.362080265326695e-05,1.0824823111728489e-05,2.0594240583058395e-05,6.856698271208706e-06,3.4697036083213074e-05,2.7409607104908695e-05,Unknown
0.22067307700000072,3.3728878803797405e-05,1.0893970009598302e-05,2.061011396532285e-05,6.784351191845908e-06,3.475799266504377e-05,2.7410086722635465e-05,Unknown
0.221192308,3.3860361822136764e-05,1.0943998792499049e-05,2.06072316072747e-05,6.698211090398086e-06,3.482039431841935e-05,2.7406193532990013e-05,Unknown
0.2217115380000001,3.387322475879671e-05,1.0979465690565663e-05,2.0594177195474734e-05,6.640576449725357e-06,3.492598362384062e-05,2.740015911601612e-05,Unknown
0.22223076900000027,3.3775076528329464e-05,1.1036080976478189e-05,2.057681277836729e-05,6.628736418669612e-06,3.5061147967776854e-05,2.7397721534414416e-05,Unknown
0.22275000000000045,3.3704324841905966e-05,1.11542570822566e-05,2.0542431078039405e-05,6.64094457423766e-06,3.517694588442448e-05,2.7399621315289185e-05,Unknown
0.22326923100000062,3.367641276212264e-05,1.1318129196543616e-05,2.046828971359316e-05,6.645956332601512e-06,3.5267919054746376e-05,2.738572697858911e-05,Unknown
0.2237884620000008,3.3636857561975744e-05,1.1470236520399392e-05,2.0353747372993808e-05,6.611665902473226e-06,3.535610733212858e-05,2.731837163015572e-05,Unknown
0.224307692,3.352844539349963e-05,1.1589252700114992e-05,2.0231833659268357e-05,6.546975954772742e-06,3.545800961234439e-05,2.717692164639877e-05,Unknown
0.22482692300000018,3.333456724417365e-05,1.170933775389602e-05,2.0132600000800003e-05,6.500768179060753e-06,3.5562535759317345e-05,2.6962744197882545e-05,Unknown
0.22534615400000035,3.319809616313025e-05,1.1873754892457404e-05,2.0057792047000565e-05,6.487304393500168e-06,3.56217616756046e-05,2.6690565574673067e-05,Unknown
0.22586538500000053,3.323211291415171e-05,1.2081075863159816e-05,1.999782279994311e-05,6.486544511865345e-06,3.5628481064755216e-05,2.643171067501359e-05,Unknown
0.22638461500000062,3.3362527880099425e-05,1.2301766844956842e-05,1.9958411873908603e-05,6.484172184806015e-06,3.563455198725735e-05,2.63026222689598e-05,Unknown
0.2269038460000008,3.350860222622233e-05,1.2527822229507017e-05,1.996936824369353e-05,6.478250311099519e-06,3.5659517712295274e-05,2.629259718086201e-05,Unknown
0.22742307700000008,3.3632625896707305e-05,1.2746469149462802e-05,2.0056677883672243e-05,6.476995778282523e-06,3.5685376627712105e-05,2.6281078063477504e-05,Unknown
0.22794230800000026,3.3716189560043864e-05,1.2952471259088031e-05,2.020921783114818e-05,6.482702743961156e-06,3.570648865535618e-05,2.6262317625422976e-05,Unknown
0.22846153800000035,3.380017891464799e-05,1.3171907161544552e-05,2.0399257917705143e-05,6.487303358823878e-06,3.5722840803921e-05,2.6263065219639103e-05,Unknown
0.22898076900000053,3.3908185285672345e-05,1.3412362739571522e-05,2.0622290893637317e-05,6.483436214086025e-06,3.57320200462485e-05,2.62659877464638e-05,Unknown
0.2295000000000007,3.40297297733682e-05,1.3675896946321294e-05,2.08997708012922e-05,6.472643526783252e-06,3.573990019407923e-05,2.6235810839462456e-05,Unknown
0.230019231,3.4171448339781555e-05,1.3967345436359074e-05,2.1245307564521656e-05,6.466346782159679e-06,3.57682493487771e-05,2.6045696182875087e-05,Unknown
0.23053846200000017,3.429444516051758e-05,1.4252315573761482e-05,2.1619316308878176e-05,6.46893198741528e-06,3.5852710090803535e-05,2.5677347234307403e-05,Unknown
0.23105769200000026,3.433771033853785e-05,1.448214947566138e-05,2.195534835507253e-05,6.47161032183561e-06,3.599159970836194e-05,2.531760447898088e-05,Unknown
0.23157692300000043,3.432670622276699e-05,1.4650710380581093e-05,2.2232780444289737e-05,6.472733314787624e-06,3.61078519051111e-05,2.509165818277062e-05,Unknown
0.2320961540000006,3.4306141764761686e-05,1.479180615407914e-05,2.247243931454296e-05,6.4768400756168985e-06,3.614190740858654e-05,2.4968443908365885e-05,Unknown
0.23261538500000078,3.427168890921593e-05,1.493478704855624e-05,2.2686594236133783e-05,6.475091519861771e-06,3.61404876456203e-05,2.488398754010198e-05,Unknown
0.233134615,3.418641068925748e-05,1.5073037561392716e-05,2.286572796523155e-05,6.460038709715948e-06,3.618338469213336e-05,2.480902231074707e-05,Unknown
0.23365384600000016,3.399458223906848e-05,1.516273357296366e-05,2.300980816519863e-05,6.442971170757596e-06,3.628793814667056e-05,2.474600539571671e-05,Unknown
0.23417307700000034,3.3780842421848586e-05,1.51883404326563e-05,2.3143706761607028e-05,6.4304877680856725e-06,3.64133369019134e-05,2.4705297957661817e-05,Unknown
0.23469230800000052,3.3710802445239346e-05,1.5189071162955557e-05,2.32825518505235e-05,6.415012938668953e-06,3.650706006932025e-05,2.468373667447001e-05,Unknown
0.2352115380000006,3.375348769604588e-05,1.5190177367290396e-05,2.3416349126538773e-05,6.386364973123284e-06,3.65422612453928e-05,2.467046423858996e-05,Unknown
0.23573076900000078,3.378615011318264e-05,1.5195658378100476e-05,2.352384498614357e-05,6.343629069384585e-06,3.654055976659469e-05,2.466683358665935e-05,Unknown
0.23625000000000007,3.3767263350761795e-05,1.5210238695655869e-05,2.358386775512081e-05,6.3064426996888575e-06,3.656448770454322e-05,2.465555668415981e-05,Unknown
0.23676923100000025,3.375485076528083e-05,1.5221230253446982e-05,2.359814647028833e-05,6.282016978654862e-06,3.664095905961377e-05,2.4460975931298827e-05,Unknown
0.23728846200000042,3.392765692112264e-05,1.5220581234097397e-05,2.3593039792287076e-05,6.249027419066591e-06,3.670187836169227e-05,2.367352554792017e-05,Unknown
0.23780769200000051,3.4365985476233014e-05,1.5217761743375168e-05,2.358703723829405e-05,6.1902517484897525e-06,3.669291451409882e-05,2.204278479750225e-05,Unknown
0.2383269230000007,3.4913689484002765e-05,1.5224413950925157e-05,2.3579930447159172e-05,6.10879475485044e-06,3.666561608367142e-05,2.010219799243548e-05,Unknown
0.23884615399999998,3.541397305307574e-05,1.5262466371343996e-05,2.3570221419737796e-05,6.025131646559972e-06,3.666752744381874e-05,1.8880785782353447e-05,Unknown
0.23936538500000015,3.583253787162937e-05,1.5351573523857972e-05,2.3567356149463186e-05,5.961192411683187e-06,3.66839164513656e-05,1.8612827228178204e-05,Unknown
0.23988461500000025,3.619136560878613e-05,1.5498648308970625e-05,2.3579044406817103e-05,5.923874209426297e-06,3.670268853880822e-05,1.8611738916255164e-05,Unknown
0.24040384600000042,3.652745826783187e-05,1.5716782522587388e-05,2.3593165974032623e-05,5.9100459287882505e-06,3.6741741991303454e-05,1.836822497133201e-05,Unknown
0.2409230770000006,3.685430903458609e-05,1.6025221266282406e-05,2.359567277360828e-05,5.922334271078539e-06,3.682314285241332e-05,1.788353508996683e-05,Unknown
0.24144230800000077,3.718354495842633e-05,1.6445235718928896e-05,2.359247800990015e-05,5.966892578425572e-06,3.691417946119996e-05,1.7421533589917566e-05,Unknown
0.24196153799999998,3.753537473971245e-05,1.6983495207624645e-05,2.3590030973966823e-05,6.039606972352506e-06,3.696371381739868e-05,1.7202009167718206e-05,Unknown
0.24248076900000015,3.78455773421642e-05,1.7609877965056437e-05,2.3578327340787302e-05,6.120419605920486e-06,3.6984155430822086e-05,1.7159204082063768e-05,Unknown
0.24300000000000033,3.801225896804626e-05,1.831225285538727e-05,2.355069522092642e-05,6.1782562041861725e-06,3.701831215988375e-05,1.71403646407717e-05,Unknown
0.2435192310000005,3.803763963318041e-05,1.9180564059684573e-05,2.3509738915214915e-05,6.187966585366829e-06,3.708051842298375e-05,1.702243670947895e-05,Unknown
0.24403846200000068,3.799123890818738e-05,2.039820077656159e-05,2.3456314091447387e-05,6.160940357009305e-06,3.715749101435826e-05,1.6598994582430417e-05,Unknown
0.24455769200000077,3.7940253718417125e-05,2.207060369337808e-05,2.339438994387484e-05,6.143147307119838e-06,3.723898655534516e-05,1.6003303237626933e-05,Unknown
0.24507692300000006,3.79144493192229e-05,2.400010790611892e-05,2.333352923261724e-05,6.157717477041877e-06,3.73331040905792e-05,1.5653969444013036e-05,Unknown
0.24559615400000023,3.786237202565556e-05,2.5802209354732743e-05,2.328702787002393e-05,6.192490155084282e-06,3.744417067290505e-05,1.5579125145051644e-05,Unknown
0.2461153850000004,3.777106746104813e-05,2.729894739753905e-05,2.327871519692686e-05,6.224166271316828e-06,3.754594057188774e-05,1.557501763726518e-05,Unknown
0.2466346150000005,3.771786335955088e-05,2.8637932751610823e-05,2.3349974408908805e-05,6.231475185074771e-06,3.760688263104905e-05,1.5573239690188038e-05,Unknown
0.24715384600000068,3.770802081530014e-05,3.0102434720900862e-05,2.35732911387342e-05,6.229579264031198e-06,3.76320546068363e-05,1.5567588672681173e-05,Unknown
0.24767307700000085,3.7704047391419216e-05,3.1848935053401804e-05,2.412253033631592e-05,6.239697854056658e-06,3.764268221865277e-05,1.5559608168680233e-05,Unknown
0.24819230800000014,3.7695600416200425e-05,3.3706056106438125e-05,2.5410259667588656e-05,6.24744465973901e-06,3.764608992443523e-05,1.5542618385498828e-05,Unknown
0.24871153800000023,3.767530704337691e-05,3.5326051067360275e-05,2.800844625612296e-05,6.247409924339081e-06,3.76463772891456e-05,1.5483286211432396e-05,Unknown
0.2492307690000004,3.771223412346575e-05,3.653711673650085e-05,3.1991665532444184e-05,6.252339907587587e-06,3.766498617973571e-05,1.5381155759177844e-05,Unknown
0.24975000000000058,3.7823924906394346e-05,3.741083750406085e-05,3.6505614861361495e-05,6.263637820570269e-06,3.773224896703439e-05,1.5321080069699075e-05,Unknown
0.25026923100000076,3.7884015727397776e-05,3.808081789507685e-05,4.049979999679711e-05,6.280047453590235e-06,3.783219037797622e-05,1.5321145190770852e-05,Unknown
0.25078846200000005,3.7866795376984855e-05,3.859518413443719e-05,4.35990905557875e-05,6.31004589622813e-06,3.790406564248872e-05,1.5209039030966067e-05,Unknown
0.25130769200000014,3.785400084831793e-05,3.891686387494968e-05,4.608733772565986e-05,6.365907627931072e-06,3.793288675119528e-05,1.4825785133896444e-05,Unknown
0.2518269230000003,3.787217012019733e-05,3.904115363363257e-05,4.83971390925192e-05,6.444369725235799e-06,3.795472595647294e-05,1.413198569146512e-05,Unknown
0.2523461540000005,3.792500262602616e-05,3.905041267778754e-05,5.071987972375532e-05,6.522376594256359e-06,3.800338045503355e-05,1.3085042295927038e-05,Unknown
0.25286538500000066,3.797056771480279e-05,3.90483491658841e-05,5.290565567606183e-05,6.58014996451058e-06,3.813583357595856e-05,1.177895047472694e-05,Unknown
0.25338461500000076,3.795410472652692e-05,3.912004817902988e-05,5.470485416542448e-05,6.612641490578356e-06,3.841361046728241e-05,1.0850299408624571e-05,Unknown
0.25390384600000004,3.792384957799247e-05,3.934266363006695e-05,5.605509208754123e-05,6.626125022932677e-06,3.881692000340983e-05,1.0753328718318972e-05,Unknown
0.2544230770000002,3.793260099812753e-05,3.975906405544258e-05,5.704624572459973e-05,6.630457273388888e-06,3.925148311113788e-05,1.0438761067471255e-05,Unknown
0.2549423080000004,3.795360186312965e-05,4.033020978766463e-05,5.772022835316247e-05,6.631802619266579e-06,3.963137536950713e-05,9.014212798319632e-06,Unknown
0.2554615380000005,3.795520538114315e-05,4.097102590695141e-05,5.803522126613942e-05,6.635272291003192e-06,3.992559504763735e-05,7.356312678099901e-06,Unknown
0.25598076900000066,3.792914358184854e-05,4.164139895977161e-05,5.806294051775887e-05,6.650840224789272e-06,4.01510235047908e-05,6.6684853181575e-06,Unknown
0.25650000000000084,3.792362025882613e-05,4.236400761099307e-05,5.8096310248125016e-05,6.686632832210907e-06,4.035410960159309e-05,6.629633870560101e-06,Unknown
0.2570192310000001,3.803121261806606e-05,4.316396045288266e-05,5.841970604453667e-05,6.717344482015689e-06,4.059439057607247e-05,6.626217567851604e-06,Unknown
0.2575384620000003,3.822022445001498e-05,4.401101369469156e-05,5.910085599301146e-05,6.71479759859753e-06,4.0908117991307055e-05,6.594044592818157e-06,Unknown
0.2580576920000004,3.836757632311906e-05,4.4839084749595134e-05,6.0083981415726126e-05,6.6986961225364014e-06,4.125985919403328e-05,6.584235995298448e-06,Unknown
0.25857692300000057,3.845374212836572e-05,4.562002269058608e-05,6.132961177922664e-05,6.687522888304672e-06,4.156364796744943e-05,6.589736222021898e-06,Unknown
0.25909615400000074,3.854628677710712e-05,4.638117903466947e-05,6.280834740210413e-05,6.681335706516796e-06,4.177588794642185e-05,6.57750663599624e-06,Unknown
0.25961538500000003,3.87600735233744e-05,4.714626649056412e-05,6.443817985844335e-05,6.684135411239768e-06,4.19275364900734e-05,6.566520480416648e-06,Unknown
0.2601346150000001,3.918732826837015e-05,4.788506598227921e-05,6.608828489530419e-05,6.715649637167887e-06,4.207474051666748e-05,6.569971540798115e-06,Unknown
0.2606538460000003,3.971526852304885e-05,4.854357897931941e-05,6.764627312001298e-05,6.8275415992024e-06,4.225217863059326e-05,6.515035765811808e-06,Unknown
0.2611730770000005,4.014916750870387e-05,4.911027794215e-05,6.906220277511098e-05,7.035838804400034e-06,4.244039729592675e-05,6.401436240522471e-06,Unknown
0.26169230800000065,4.04481110257566e-05,4.962543487427165e-05,7.03340479189908e-05,7.287647543336923e-06,4.258316454426335e-05,6.320319471258712e-06,Unknown
0.26221153800000074,4.0696654378710206e-05,5.013658040068429e-05,7.146926785127321e-05,7.538542662440489e-06,4.266069476171995e-05,6.292239747480143e-06,Unknown
0.26273076900000003,4.10395956815918e-05,5.065336073912018e-05,7.246325844004115e-05,7.799585504173168e-06,4.270063332888525e-05,6.2819205404080525e-06,Unknown
0.2632500000000002,4.154059127032314e-05,5.113727921242471e-05,7.330763588972181e-05,8.108483773888e-06,4.27409097238306e-05,6.268554290759623e-06,Unknown
0.2637692310000004,4.204754570629817e-05,5.15387063491399e-05,7.400716314307522e-05,8.46924489753693e-06,4.28065167972017e-05,6.250814363928055e-06,Unknown
0.26428846200000056,4.238862945438288e-05,5.184338523232314e-05,7.458311747449508e-05,8.835894969439013e-06,4.288284451870692e-05,6.245218525147542e-06,Unknown
0.26480769200000065,4.255432665090203e-05,5.2078343335097046e-05,7.506442415602997e-05,9.160506163958932e-06,4.2937616129912734e-05,6.261768904140376e-06,Unknown
0.2653269230000008,4.266028079922222e-05,5.228466900815167e-05,7.547635899794638e-05,9.434775174986932e-06,4.296120946448708e-05,6.29502335163387e-06,Unknown
0.2658461540000001,4.285871742966151e-05,5.249220470664695e-05,7.583298693114753e-05,9.68102356740082e-06,4.296031700216042e-05,6.3451330899210455e-06,Unknown
0.2663653850000003,4.316210690412325e-05,5.270721247601011e-05,7.613587698467705e-05,9.91755766801615e-06,4.2951565233852666e-05,6.419305393573705e-06,Unknown
0.2668846150000004,4.343197206188824e-05,5.2920270976388566e-05,7.637982404456211e-05,1.0139995521721064e-05,4.2949810943581456e-05,6.507484544194897e-06,Unknown
0.26740384600000056,4.3588226039593466e-05,5.312240820039606e-05,7.656206065748205e-05,1.03386132828696e-05,4.295133610051331e-05,6.579450941744085e-06,Unknown
0.26792307700000073,4.365182876655717e-05,5.33018640735067e-05,7.668968310123985e-05,1.0525015842253846e-05,4.295105584326413e-05,6.620919831922901e-06,Unknown
0.268442308,4.366874102417239e-05,5.343779727047236e-05,7.677904360892904e-05,1.0717859427298138e-05,4.296303463028548e-05,6.641895622597856e-06,Unknown
0.2689615380000001,4.367374993230541e-05,5.351652708437295e-05,7.684650704809474e-05,1.090410690084916e-05,4.303150397884885e-05,6.654855226951855e-06,Unknown
0.2694807690000003,4.366662157269901e-05,5.354787712348499e-05,7.690028682758128e-05,1.104916876270185e-05,4.320679624011965e-05,6.665905313792869e-06,Unknown
0.27000000000000046,4.363587859893232e-05,5.35542459443957e-05,7.694040674841432e-05,1.1143862583573023e-05,4.347176403917952e-05,6.675689406156115e-06,Unknown
0.27051923100000064,4.358460016563383e-05,5.3551332141493104e-05,7.69653490702447e-05,1.1206802721044824e-05,4.373175856385858e-05,6.679405566120712e-06,Unknown
0.2710384620000008,4.352731305451705e-05,5.354817596365808e-05,7.697746528765453e-05,1.1256304773385342e-05,4.3901331903068186e-05,6.674976578115079e-06,Unknown
0.271557692,4.352295771542435e-05,5.355693131464594e-05,7.698162552029858e-05,1.129256125277166e-05,4.397405320447379e-05,6.680194200422046e-06,Unknown
0.2720769230000002,4.363539990385221e-05,5.359032128752291e-05,7.698156082415735e-05,1.130500943540062e-05,4.399874550626998e-05,6.725310159701329e-06,Unknown
0.27259615400000037,4.382417547117315e-05,5.365096652175432e-05,7.69790045793974e-05,1.1303391394121362e-05,4.401504328703896e-05,6.813962090416837e-06,Unknown
0.27311538500000054,4.399364114933588e-05,5.37323481180351e-05,7.697469886921899e-05,1.1308786105105389e-05,4.404998298552548e-05,6.917273990567279e-06,Unknown
0.27363461500000064,4.410766569590286e-05,5.383514147269219e-05,7.696861097424925e-05,1.1323342344425411e-05,4.413475288774344e-05,7.011221690611459e-06,Unknown
0.2741538460000008,4.4225678552204494e-05,5.397372969625515e-05,7.696151073198653e-05,1.1342825110142294e-05,4.428462932444293e-05,7.088263827357031e-06,Unknown
0.2746730770000001,4.4511759457230646e-05,5.4160858177790735e-05,7.6960080619765e-05,1.1372989122383677e-05,4.4488648331450624e-05,7.143971778192646e-06,Unknown
0.2751923080000003,4.5051861448066864e-05,5.43871874720897e-05,7.698062807110756e-05,1.1423055306307676e-05,4.473182579229355e-05,7.178214068946464e-06,Unknown
0.27571153800000037,4.56818450799724e-05,5.462285427367703e-05,7.704135586570932e-05,1.1494847393560177e-05,4.50050924496493e-05,7.200192318236636e-06,Unknown
0.27623076900000054,4.621145805636829e-05,5.484737575669236e-05,7.714649852662346e-05,1.157411976578967e-05,4.528201216860221e-05,7.220246763518007e-06,Unknown
0.2767500000000007,4.663358371313591e-05,5.506915152800464e-05,7.728422187666121e-05,1.1647640448633477e-05,4.552913323564111e-05,7.243115728989058e-06,Unknown
0.277269231,4.707867849364571e-05,5.531215697719338e-05,7.743926256240057e-05,1.1730434938856725e-05,4.574558833416491e-05,7.265337392729066e-06,Unknown
0.2777884620000002,4.772150929443891e-05,5.558602560979684e-05,7.760256709211787e-05,1.1856916736632755e-05,4.596426534177629e-05,7.279537116036924e-06,Unknown
0.2783076920000003,4.8580923564059295e-05,5.586540821890815e-05,7.777430720047395e-05,1.2055406620487077e-05,4.623765360420492e-05,7.289260191137769e-06,Unknown
0.27882692300000045,4.9467138714453456e-05,5.6110830589818376e-05,7.796543897807732e-05,1.231401176680081e-05,4.6599748731953694e-05,7.310232754481749e-06,Unknown
0.2793461540000006,5.0240088821275706e-05,5.631128878920763e-05,7.819727896065408e-05,1.2574596782446836e-05,4.7021724334263e-05,7.347289192599143e-06,Unknown
0.2798653850000008,5.090841608297013e-05,5.648657502481675e-05,7.848583648109489e-05,1.2796019281868027e-05,4.7446244318036186e-05,7.386454111427564e-06,Unknown
0.280384615,5.152002640994004e-05,5.665688110602672e-05,7.881546791097191e-05,1.298472065624737e-05,4.783744373735852e-05,7.417191187208823e-06,Unknown
0.2809038460000002,5.2083530609171614e-05,5.6824266949071447e-05,7.914030309216042e-05,1.316099131684652e-05,4.8180999681339536e-05,7.443721253230095e-06,Unknown
0.28142307700000035,5.253952950649782e-05,5.697904444387752e-05,7.942077618288642e-05,1.3332163789130574e-05,4.848359039406972e-05,7.472411296412071e-06,Unknown
0.28194230800000053,5.284791411686687e-05,5.712118979431631e-05,7.964708395043568e-05,1.3489593763811213e-05,4.876218995921489e-05,7.492385860448234e-06,Unknown
0.2824615380000006,5.304942626132545e-05,5.726120451749363e-05,7.982711147782371e-05,1.3628590112551811e-05,4.9023167992174975e-05,7.491514253610938e-06,Unknown
0.2829807690000008,5.3172927391163936e-05,5.739575253636803e-05,7.996845587542553e-05,1.3756023856161572e-05,4.926336917769708e-05,7.480758031856368e-06,Unknown
0.2835000000000001,5.3205243982537125e-05,5.7507727699427365e-05,8.007711146150223e-05,1.387088790631754e-05,4.946019028605162e-05,7.474033559383101e-06,Unknown
0.28401923100000026,5.316111795842658e-05,5.759152918839433e-05,8.016274156176551e-05,1.3960167438965474e-05,4.95903428202594e-05,7.471741622664466e-06,Unknown
0.28453846200000044,5.30779488147106e-05,5.7656887397753714e-05,8.0234419377292e-05,1.4018145925817518e-05,4.967751290957212e-05,7.469926235831518e-06,Unknown
0.28505769200000053,5.2980475115709895e-05,5.771501266477534e-05,8.029079485907754e-05,1.4054590579442127e-05,4.977352111361838e-05,7.465127459510744e-06,Unknown
0.2855769230000007,5.2877921624311625e-05,5.776564965988688e-05,8.032408586730632e-05,1.407890992576983e-05,4.9923198705270055e-05,7.458313958386211e-06,Unknown
0.286096154,5.27784897006841e-05,5.779780234999494e-05,8.033603139121445e-05,1.4094610932015078e-05,5.012722964764486e-05,7.457926565550289e-06,Unknown
0.28661538500000017,5.274591589294445e-05,5.781017572337839e-05,8.033919323881378e-05,1.411044368778646e-05,5.030388894420841e-05,7.467680443575042e-06,Unknown
0.28713461500000026,5.2834534948956974e-05,5.781439752601378e-05,8.034236899012979e-05,1.4135250340277751e-05,5.0377444624736255e-05,7.478993664874194e-06,Unknown
0.28765384600000043,5.296631296473851e-05,5.781543763845937e-05,8.03451867927502e-05,1.4162247001152276e-05,5.0383069457373686e-05,7.484418956964115e-06,Unknown
0.2881730770000006,5.305611556670085e-05,5.7813394571384365e-05,8.034537868386223e-05,1.4177544794071783e-05,5.038504465303401e-05,7.485054212128772e-06,Unknown
0.2886923080000008,5.311731621280282e-05,5.781201087827386e-05,8.034325881143204e-05,1.4181890602314788e-05,5.039036091705118e-05,7.48570346188789e-06,Unknown
0.289211538,5.3203551341015206e-05,5.781122948830174e-05,8.034168489979307e-05,1.418575159179831e-05,5.039532849167808e-05,7.489334848136306e-06,Unknown
0.28973076900000017,5.3385183614183385e-05,5.781125296777796e-05,8.034174599985803e-05,1.4190338480711316e-05,5.04098060871124e-05,7.491354633754092e-06,Unknown
0.29025000000000034,5.364000488407017e-05,5.781277151319084e-05,8.034181383653661e-05,1.419079696572474e-05,5.047021377801106e-05,7.489631149789079e-06,Unknown
0.2907692310000005,5.383823913079797e-05,5.7810049897094e-05,8.03438928153882e-05,1.4188629135037078e-05,5.060330134191225e-05,7.4904275028133985e-06,Unknown
0.2912884620000007,5.394516092392916e-05,5.7804112641362686e-05,8.035081423609722e-05,1.4188491996422068e-05,5.0737936399581605e-05,7.494181713759368e-06,Unknown
0.2918076920000008,5.403185233034079e-05,5.7801493301105386e-05,8.036072574858795e-05,1.4191410008183877e-05,5.079963043935252e-05,7.500917952008131e-06,Unknown
0.29232692300000007,5.414698552609525e-05,5.780182462930426e-05,8.036996572129115e-05,1.4196761334158798e-05,5.0812311609705725e-05,7.5171740094061056e-06,Unknown
0.29284615400000025,5.42971537432824e-05,5.780491979093911e-05,8.037588546588276e-05,1.4204761157056066e-05,5.081262898680065e-05,7.545785965617442e-06,Unknown
0.2933653850000004,5.44244495374581e-05,5.780965269257032e-05,8.037823424535262e-05,1.4215997577442244e-05,5.081989125232118e-05,7.580816561703394e-06,Unknown
0.2938846150000005,5.446550370586353e-05,5.781181303315451e-05,8.037853144052139e-05,1.423059380035301e-05,5.0883435237841536e-05,7.609919730719366e-06,Unknown
0.2944038460000007,5.445800091778359e-05,5.781262848431948e-05,8.037648318897251e-05,1.4248193075523632e-05,5.108974657901413e-05,7.626473611323333e-06,Unknown
0.294923077,5.446089643772589e-05,5.7814660337370686e-05,8.036939952942246e-05,1.426890014878426e-05,5.155074000821274e-05,7.636332771293703e-06,Unknown
0.29544230800000015,5.447237664759396e-05,5.781568023825728e-05,8.035570892847502e-05,1.4294109755936472e-05,5.2295952278390704e-05,7.649090409698204e-06,Unknown
0.29596153800000025,5.44747790080014e-05,5.781389363008605e-05,8.033848489813957e-05,1.4325411597416194e-05,5.31578485635668e-05,7.667228236306268e-06,Unknown
0.2964807690000004,5.446092596559457e-05,5.7810125984661706e-05,8.032450925142784e-05,1.4361166348133227e-05,5.390727515437139e-05,7.681852312854959e-06,Unknown
0.2970000000000006,5.444569585197423e-05,5.780805306999421e-05,8.031871990341151e-05,1.4393587662120844e-05,5.446983125156904e-05,7.68417806847359e-06,Unknown
0.2975192310000008,5.445510416276369e-05,5.781472767452184e-05,8.032010616428264e-05,1.4414477207946906e-05,5.492223717256658e-05,7.678179645344402e-06,Unknown
0.29803846200000006,5.447491725445051e-05,5.782927399564556e-05,8.032375309331473e-05,1.4426285466292435e-05,5.53680559821881e-05,7.67275203254484e-06,Unknown
0.29855769200000015,5.447960591687655e-05,5.784143640554623e-05,8.03256215912503e-05,1.443548816470936e-05,5.584392835054196e-05,7.671692156964337e-06,Unknown
0.2990769230000003,5.447936287964918e-05,5.7847575831150425e-05,8.032391493724514e-05,1.4442988273220646e-05,5.629934698297623e-05,7.672201352872181e-06,Unknown
0.2995961540000005,5.447781876094912e-05,5.7853483014843295e-05,8.031840611118298e-05,1.4449897759219634e-05,5.6677372721094656e-05,7.669629845278952e-06,Unknown
0.3001153850000007,5.4465458431136586e-05,5.78662674379606e-05,8.031133391725027e-05,1.4461160865459175e-05,5.6989361107244814e-05,7.666085417557619e-06,Sat
0.30063461500000077,5.445191717861247e-05,5.7887221093225525e-05,8.030665504252992e-05,1.4483543522144924e-05,5.728676365513901e-05,7.670346257046918e-06,Sat
0.30115384600000006,5.444203094382199e-05,5.790749684838189e-05,8.03057379023408e-05,1.4516934724429412e-05,5.759534514475346e-05,7.691789421942317e-06,Sat
0.30167307700000023,5.442711250855124e-05,5.79193650507121e-05,8.030617452867957e-05,1.4549366083801944e-05,5.78877628823891e-05,7.72887637379202e-06,Sat
0.3021923080000004,5.438585201388382e-05,5.792522283103648e-05,8.030581996177588e-05,1.4569879195592147e-05,5.811235829250336e-05,7.763661980815304e-06,Sat
0.3027115380000005,5.4291235636848696e-05,5.793281206463199e-05,8.030467161042048e-05,1.4580128904598722e-05,5.824674392158749e-05,7.781453499114135e-06,Sat
0.3032307690000007,5.4176741268976815e-05,5.795535852525384e-05,8.030315352660328e-05,1.4587484615684715e-05,5.830816641375615e-05,7.785265266755362e-06,Sat
0.30375000000000085,5.410482685341638e-05,5.799649669276e-05,8.030126952322981e-05,1.4598003322133406e-05,5.832450691187e-05,7.78354817378723e-06,Sat
0.30426923100000014,5.4065039072658966e-05,5.8036477680656015e-05,8.029904544306935e-05,1.461289893084493e-05,5.831448055229952e-05,7.779605648068128e-06,Sat
0.3047884620000003,5.400626744135471e-05,5.806055518838901e-05,8.029651566853193e-05,1.4628121383496056e-05,5.8275072590878905e-05,7.777608961323078e-06,Sat
0.3053076920000004,5.389663616277275e-05,5.807482728749603e-05,8.029315471018168e-05,1.4643321147240047e-05,5.817200474057813e-05,7.784403049740786e-06,Sat
0.3058269230000006,5.376339210174891e-05,5.809007895565494e-05,8.028788173370619e-05,1.4658849265605678e-05,5.7930767754414334e-05,7.799138740015105e-06,Sat
0.30634615400000076,5.369985309112321e-05,5.8118191469737216e-05,8.02794567408733e-05,1.4670364913640792e-05,5.7465285397972805e-05,7.809731807319749e-06,Sat
0.30686538500000005,5.373549395416163e-05,5.816013919372221e-05,8.026751508484142e-05,1.4675124880699985e-05,5.6804124855353046e-05,7.80601149607576e-06,Sat
0.30738461500000014,5.38071353879598e-05,5.819836808253856e-05,8.0255672729517e-05,1.467017594741696e-05,5.612528303461421e-05,7.794257936585968e-06,Sat
0.3079038460000003,5.387321121337356e-05,5.822464856084783e-05,8.025225156304739e-05,1.4654941922830929e-05,5.557571889177945e-05,7.78478916492691e-06,Sat
0.3084230770000005,5.391955321788392e-05,5.824543811158419e-05,8.026248868156867e-05,1.4639445261702e-05,5.516282391673771e-05,7.772972244637242e-06,Sat
0.30894230800000066,5.3942423946824816e-05,5.826378079596501e-05,8.028321412850333e-05,1.4632939867024966e-05,5.4820949704863234e-05,7.754528965289546e-06,Sat
0.30946153800000076,5.3963019135841456e-05,5.82791134564068e-05,8.030771607365884e-05,1.4632556097556612e-05,5.449648002936098e-05,7.735434932110189e-06,Sat
0.30998076900000004,5.39835629164559e-05,5.828920157817568e-05,8.032966710474652e-05,1.4632238561545074e-05,5.4182485165783136e-05,7.722329817280408e-06,Sat
0.3105000000000002,5.3993254766236254e-05,5.8294125121417473e-05,8.034579647704967e-05,1.463208449598575e-05,5.388367418276673e-05,7.719236857980254e-06,Sat
0.3110192310000004,5.4005171399398345e-05,5.8298138060554135e-05,8.035737053656515e-05,1.4632416281963271e-05,5.358903751892594e-05,7.721911657790613e-06,Sat
0.31153846200000057,5.400582250527943e-05,5.830045517421719e-05,8.036724808927864e-05,1.4630961466422453e-05,5.330765888033072e-05,7.723100010324446e-06,Sat
0.31205769200000066,5.39823720969928e-05,5.829990969463321e-05,8.03784379230687e-05,1.4629593836798894e-05,5.310101534211111e-05,7.720984068267998e-06,Sat
0.31257692300000084,5.396767994085973e-05,5.82997974300476e-05,8.039283482517645e-05,1.462958896538119e-05,5.301941035242419e-05,7.715304478530313e-06,Sat
0.3130961540000001,5.395661538122367e-05,5.83000254293854e-05,8.040881128716334e-05,1.4626182548721064e-05,5.302602756369431e-05,7.705285124728395e-06,Sat
0.3136153850000003,5.3909032779773126e-05,5.829931017448528e-05,8.042211660358434e-05,1.4615224688141051e-05,5.304494495779245e-05,7.68808705099361e-06,Sat
0.3141346150000004,5.38036211270993e-05,5.829700261659301e-05,8.042777743640535e-05,1.4603308627299577e-05,5.302976589707601e-05,7.66446782979279e-06,Sat
0.31465384600000057,5.364744772678308e-05,5.829239910736956e-05,8.042183093362439e-05,1.4602298346473184e-05,5.297243035000524e-05,7.642017728918093e-06,Sat
0.31517307700000075,5.353860344156918e-05,5.82929163203939e-05,8.040579793940246e-05,1.4608765783241443e-05,5.288700057046294e-05,7.623705817865305e-06,Sat
0.31569230800000003,5.356513346664164e-05,5.830242907119735e-05,8.038738528686884e-05,1.4610690531430312e-05,5.279038594626081e-05,7.6053463764164416e-06,Sat
0.3162115380000001,5.3647823948765366e-05,5.830820717312404e-05,8.03726313685935e-05,1.4606084973887932e-05,5.268760015532911e-05,7.583873893864762e-06,Sat
0.3167307690000003,5.368724332563598e-05,5.830566813764458e-05,8.036166665340609e-05,1.4592496056528125e-05,5.25476714586674e-05,7.5615482624508116e-06,Sat
0.3172500000000005,5.367726338766282e-05,5.830312907272952e-05,8.035382570500468e-05,1.4571679091785668e-05,5.231249072114716e-05,7.542032152517421e-06,Sat
0.31776923100000065,5.365723148127603e-05,5.830221643348214e-05,8.03512173862196e-05,1.4560636809542028e-05,5.197783104353578e-05,7.524459057997301e-06,Sat
0.3182884620000008,5.372447454080581e-05,5.830569900115508e-05,8.035538345003786e-05,1.456131958313717e-05,5.163228811747698e-05,7.505103226406301e-06,Sat
0.31880769200000003,5.390552272328349e-05,5.831219216844453e-05,8.036524159789345e-05,1.4561419745356023e-05,5.137469425868729e-05,7.481981886684192e-06,Sat
0.3193269230000002,5.408106646458931e-05,5.83095055172818e-05,8.037939179855062e-05,1.4563275608982393e-05,5.122973486283858e-05,7.454948549695446e-06,Sat
0.3198461540000004,5.418710217788834e-05,5.829720728793978e-05,8.039655831892186e-05,1.4568559697005853e-05,5.115309427231994e-05,7.42308234097511e-06,Sat
0.32036538500000056,5.425896823192748e-05,5.828672850909888e-05,8.041586552349934e-05,1.4570661881658876e-05,5.108155063216127e-05,7.387836641877679e-06,Sat
0.32088461500000065,5.432249962117971e-05,5.828182699172594e-05,8.043713883975618e-05,1.4570152639495566e-05,5.097057717066914e-05,7.355014514525391e-06,Sat
0.3214038460000008,5.4381382018817296e-05,5.827661698361152e-05,8.046048183606925e-05,1.457017363417506e-05,5.081609621010311e-05,7.324378157238983e-06,Sat
0.3219230770000001,5.441292673654605e-05,5.8266373698268816e-05,8.048567018447398e-05,1.4568533085004084e-05,5.0661682953892585e-05,7.288387712262975e-06,Sat
0.3224423080000003,5.440210838997497e-05,5.824979626657228e-05,8.050859733694702e-05,1.456235361342083e-05,5.055956266980149e-05,7.246529456516479e-06,Sat
0.3229615380000004,5.438155006093493e-05,5.822920343898516e-05,8.051982497721178e-05,1.4553254936191472e-05,5.051908473229789e-05,7.205892990397853e-06,Sat
0.32348076900000056,5.4365541385903513e-05,5.820955682390183e-05,8.051142698403231e-05,1.4545894422842172e-05,5.050811667682037e-05,7.175870138672435e-06,Sat
0.32400000000000073,5.4332694818546686e-05,5.818993259224004e-05,8.048558799892819e-05,1.4543531486489804e-05,5.0490204195512366e-05,7.163508280509682e-06,Sat
0.324519231,5.429062657230019e-05,5.816716219435147e-05,8.044992895385248e-05,1.454701322806708e-05,5.045956477632636e-05,7.162630305648212e-06,Sat
0.3250384620000002,5.4246201498063456e-05,5.814121935201208e-05,8.040799014855317e-05,1.455479565942944e-05,5.0436453940038095e-05,7.166778200432555e-06,Sat
0.3255576920000003,5.4185106662418586e-05,5.811442752218717e-05,8.036142775623622e-05,1.4560911045634073e-05,5.043629068986379e-05,7.183427847609587e-06,Sat
0.32607692300000046,5.4107294441884105e-05,5.809042389351527e-05,8.03153035815124e-05,1.456184644983758e-05,5.046777163851622e-05,7.227234779452506e-06,Sat
0.32659615400000064,5.401995784818936e-05,5.807104047405395e-05,8.027578977099422e-05,1.4562362798808782e-05,5.052784976475593e-05,7.295016474160511e-06,Sat
0.3271153850000008,5.398658913515563e-05,5.8057221029250055e-05,8.024351163836825e-05,1.456468215109948e-05,5.058609917031165e-05,7.341152349915801e-06,Sat
0.327634615,5.406781137172578e-05,5.804971394778138e-05,8.021236871774984e-05,1.456600247369391e-05,5.061428577446968e-05,7.344980842225985e-06,Sat
0.3281538460000002,5.418331074550878e-05,5.804759122724324e-05,8.01789593963224e-05,1.4566315083217767e-05,5.062073319253404e-05,7.356832042570693e-06,Sat
0.32867307700000037,5.42489142180555e-05,5.80488608935523e-05,8.015178184523665e-05,1.45660211761278e-05,5.062322308395344e-05,7.397262274670446e-06,Sat
0.32919230800000054,5.427630147881984e-05,5.804959097754296e-05,8.014162605013238e-05,1.4564970561163236e-05,5.062576396852392e-05,7.427726669987534e-06,Sat
0.32971153800000064,5.430746631167158e-05,5.804748129390607e-05,8.014711962752226e-05,1.456523502048132e-05,5.062994538612714e-05,7.4338518605402685e-06,Sat
0.3302307690000008,5.4400748710428285e-05,5.8046035286332354e-05,8.015934583914419e-05,1.4566463896287172e-05,5.063078250388618e-05,7.432961044621782e-06,Sat
0.3307500000000001,5.451465502876739e-05,5.804674789648589e-05,8.01723788701776e-05,1.456443161642552e-05,5.0626424661868224e-05,7.434705604821691e-06,Sat
0.3312692310000003,5.452257301887583e-05,5.804693408239899e-05,8.0185108139397e-05,1.4559588732937818e-05,5.0628164880710834e-05,7.436693612666669e-06,Sat
0.33178846200000045,5.443803572106337e-05,5.8047563038788215e-05,8.019729901818728e-05,1.4559981816460736e-05,5.063566951485497e-05,7.436580114150097e-06,Sat
0.33230769200000054,5.4364807485117376e-05,5.805038749244704e-05,8.020680502449192e-05,1.45713443001273e-05,5.06387817428085e-05,7.436243497763225e-06,Sat
0.3328269230000007,5.432279532874209e-05,5.805330408705629e-05,8.021013467384562e-05,1.4587566357852709e-05,5.063966603481377e-05,7.436572572350455e-06,Sat
0.333346154,5.428128953133556e-05,5.8054907578165626e-05,8.020440493164016e-05,1.4598424441566786e-05,5.064480914372887e-05,7.43566015027104e-06,Sat
0.3338653850000002,5.420073002791722e-05,5.8055365873284176e-05,8.019059546386566e-05,1.4603263425325031e-05,5.065758999493968e-05,7.43414368000094e-06,Sat
0.3343846150000003,5.406870293771366e-05,5.80557671442712e-05,8.017399832711747e-05,1.4606734170092186e-05,5.067977469066985e-05,7.433083884408837e-06,Sat
0.33490384600000045,5.39468806775733e-05,5.805890054275971e-05,8.015901062199391e-05,1.4611106179779497e-05,5.070655069368993e-05,7.431258518757621e-06,Sat
0.3354230770000006,5.388262283600591e-05,5.806527099209928e-05,8.01452031084195e-05,1.4617883535855068e-05,5.073439075631485e-05,7.427938657864946e-06,Sat
0.3359423080000008,5.385883590178625e-05,5.8073397356750366e-05,8.013048670992743e-05,1.462835372621437e-05,5.07655008447628e-05,7.422727378643861e-06,Sat
0.336461538,5.385518646897405e-05,5.808072837920746e-05,8.011697320172588e-05,1.464304865435806e-05,5.079766519012633e-05,7.414370936677487e-06,Sat
0.3369807690000002,5.385150205968722e-05,5.808251856078829e-05,8.011028081288657e-05,1.466063205344219e-05,5.082288615668605e-05,7.400921429452072e-06,Sat
0.33750000000000036,5.382578579871707e-05,5.807996036351077e-05,8.011164165312957e-05,1.4678484166205137e-05,5.083463759210536e-05,7.383362949753915e-06,Sat
0.33801923100000053,5.379522969178903e-05,5.807970572346686e-05,8.011722601262298e-05,1.4695920419326145e-05,5.08349921348167e-05,7.36403649116057e-06,Sat
0.3385384620000007,5.379058583143675e-05,5.808260523915824e-05,8.012477979674579e-05,1.4715266987893905e-05,5.083700526491183e-05,7.342131344136392e-06,Sat
0.3390576920000008,5.383167436645572e-05,5.808714707704573e-05,8.013476218086804e-05,1.4741293613885798e-05,5.0851407601316345e-05,7.3199618866591376e-06,Sat
0.3395769230000001,5.393612845935434e-05,5.809305968247724e-05,8.014905568411236e-05,1.4776830899445e-05,5.087143986541537e-05,7.302108422559755e-06,Sat
0.34009615400000026,5.406293771004179e-05,5.809634843565598e-05,8.017007255465945e-05,1.4812554365708186e-05,5.088317670078285e-05,7.284371171924887e-06,Sat
0.34061538500000044,5.414190871558278e-05,5.8093799687955606e-05,8.019730496212062e-05,1.4830651007918516e-05,5.08800167562389e-05,7.254474093747627e-06,Sat
0.34113461500000053,5.417503749904053e-05,5.8085262782426506e-05,8.022571508196315e-05,1.4830245996916056e-05,5.086168138320374e-05,7.202593348984517e-06,Sat
0.3416538460000007,5.419585435106042e-05,5.807081340139915e-05,8.024965464190676e-05,1.4822943562322605e-05,5.083543209874205e-05,7.13369742256443e-06,Sat
0.342173077,5.422391488702967e-05,5.80560674940131e-05,8.026711234706988e-05,1.480796970931e-05,5.080920980738846e-05,7.074679371191323e-06,Sat
0.34269230800000017,5.424860602406922e-05,5.8047800287957135e-05,8.02792768211936e-05,1.4790180324727056e-05,5.077886913502364e-05,7.052173555142823e-06,Sat
0.34321153800000026,5.421283886882604e-05,5.804424207041323e-05,8.028830595696442e-05,1.4783017772681556e-05,5.0730751435586895e-05,7.0509996455175255e-06,Sat
0.34373076900000044,5.412792008350616e-05,5.80429956231622e-05,8.029548597780112e-05,1.4782482513115477e-05,5.065055829769495e-05,7.040519451369697e-06,Sat
0.3442500000000006,5.407273272120743e-05,5.8044428301625206e-05,8.029958613564551e-05,1.4781820506995732e-05,5.054686584660379e-05,7.027014111970219e-06,Sat
0.3447692310000008,5.405277616904952e-05,5.8044791832790745e-05,8.029865154275979e-05,1.4779911330493874e-05,5.04565073650268e-05,7.018476315943071e-06,Sat
0.3452884620000001,5.4025959923909294e-05,5.804100936222541e-05,8.029380310744352e-05,1.4772019263799798e-05,5.039612583389899e-05,7.011997141296714e-06,Sat
0.34580769200000017,5.396231342735856e-05,5.803649586260174e-05,8.028809667413459e-05,1.4761077479980715e-05,5.034707113973385e-05,7.022775220742342e-06,Sat
0.34632692300000034,5.387796413418682e-05,5.803530572342166e-05,8.028287240901004e-05,1.4753889289824108e-05,5.028893929542794e-05,7.049465042755086e-06,Sat
0.3468461540000005,5.385861030701762e-05,5.803708576234495e-05,8.02775863698904e-05,1.4749054013822202e-05,5.0209322342267366e-05,7.06674184746506e-06,Sat
0.3473653850000007,5.393209332588127e-05,5.80367199758299e-05,8.027220018074379e-05,1.4742446715005348e-05,5.011580084359172e-05,7.0680366564513855e-06,Sat
0.3478846150000008,5.403367690836908e-05,5.802591915628775e-05,8.026870723511076e-05,1.4734657054868343e-05,5.003358661533603e-05,7.060995972643127e-06,Sat
0.3484038460000001,5.412970298896015e-05,5.800314404768145e-05,8.02687987522644e-05,1.4729494420579763e-05,4.996910936171196e-05,7.051815752353308e-06,Sat
0.34892307700000025,5.4218800499751794e-05,5.797721965586056e-05,8.027202027892386e-05,1.4727356084407736e-05,4.9906075848257857e-05,7.052086068508274e-06,Sat
0.3494423080000004,5.428837508886432e-05,5.795413760975901e-05,8.027775348472813e-05,1.4726276452181028e-05,4.982977283248148e-05,7.062357036402311e-06,Sat
0.3499615380000005,5.432918527224632e-05,5.792998998568565e-05,8.02881838894487e-05,1.4725732946259313e-05,4.975285376180333e-05,7.070959095807818e-06,Sat
0.3504807690000007,5.433613057707031e-05,5.789516591957634e-05,8.030774603834583e-05,1.472492767775682e-05,4.97107609361848e-05,7.076113429926828e-06,Sat
0.351,5.432036060213876e-05,5.784478219687903e-05,8.033330069451663e-05,1.4724293912140014e-05,4.970643109154752e-05,7.08282270046097e-06,Sat
0.35151923100000015,5.431288090333163e-05,5.778734948713093e-05,8.034979829995988e-05,1.4727352472878192e-05,4.970348704346236e-05,7.092321963450618e-06,Sat
0.35203846200000033,5.429482227393311e-05,5.773378456691605e-05,8.034469206318884e-05,1.4734422034130446e-05,4.9685950628845136e-05,7.094873966929105e-06,Sat
0.3525576920000004,5.422391094741248e-05,5.7685978116183385e-05,8.03182691815678e-05,1.4740278374786809e-05,4.9663772270127786e-05,7.092795693217399e-06,Sat
0.3530769230000006,5.4136857735083695e-05,5.7639493937095416e-05,8.027802075890151e-05,1.4741608439468172e-05,4.964446670758772e-05,7.1022491361131855e-06,Sat
0.3535961540000008,5.407254842452255e-05,5.758935385355385e-05,8.022947522816667e-05,1.473982029234299e-05,4.963540242100369e-05,7.117477015084839e-06,Sat
0.35411538500000006,5.400926605711957e-05,5.753372992134625e-05,8.016998347712743e-05,1.4738641065796203e-05,4.963569634254186e-05,7.132816533740359e-06,Sat
0.35463461500000015,5.3925764297777095e-05,5.747080343768991e-05,8.009272692000113e-05,1.4744742288929814e-05,4.9629408137974747e-05,7.162726566124446e-06,Sat
0.35515384600000033,5.382116443968475e-05,5.740046472661105e-05,7.999822405373347e-05,1.47656823027159e-05,4.9599150784436976e-05,7.225107277071264e-06,Sat
0.3556730770000005,5.375970569362156e-05,5.733175117847749e-05,7.98982425896003e-05,1.4797629850033915e-05,4.952492847305032e-05,7.3075734343820755e-06,Sat
0.3561923080000007,5.380466404774519e-05,5.727646879050733e-05,7.980574405855061e-05,1.4825957377038989e-05,4.9411102420225206e-05,7.38063714312942e-06,Sat
0.35671153800000077,5.388797254934232e-05,5.7235756645463824e-05,7.972376374065513e-05,1.4843348292008122e-05,4.931891132300796e-05,7.441734402944248e-06,Sat
0.35723076900000006,5.393568483700563e-05,5.720081907329561e-05,7.964703608903582e-05,1.4854691318295333e-05,4.9293535592491606e-05,7.504578789954625e-06,Sat
0.35775000000000023,5.395864842243771e-05,5.716400458195149e-05,7.957056167549904e-05,1.4872019324148665e-05,4.929564374345084e-05,7.5605952635593665e-06,Sat
0.3582692310000004,5.3988716353526e-05,5.71289414859648e-05,7.949506752564835e-05,1.490098636110413e-05,4.926462329142497e-05,7.583981582691035e-06,Sat
0.3587884620000006,5.40857330734355e-05,5.710826398165768e-05,7.94264121255756e-05,1.4930100752918931e-05,4.9189398640736055e-05,7.578566745707121e-06,Sat
0.3593076920000007,5.424655805345204e-05,5.710481486088534e-05,7.936980745695927e-05,1.494916066079344e-05,4.910249383247263e-05,7.559179588956298e-06,Sat
0.35982692300000085,5.436679465112356e-05,5.7108370974814e-05,7.932551646981076e-05,1.4961735302438117e-05,4.904324530856514e-05,7.534553984933479e-06,Sat
0.36034615400000014,5.441172797681871e-05,5.7110686709050586e-05,7.929176375733935e-05,1.4975793766403524e-05,4.902594138344865e-05,7.521083272699729e-06,Sat
0.3608653850000003,5.442737547697536e-05,5.710958474508047e-05,7.92688997028148e-05,1.4997439149321048e-05,4.903047292167479e-05,7.519770464702495e-06,Sat
0.3613846150000004,5.442968117837072e-05,5.710570433132425e-05,7.925752929618588e-05,1.5023519166680492e-05,4.9012175890662045e-05,7.52005522763899e-06,Sat
0.3619038460000006,5.4388362984899776e-05,5.710273757613198e-05,7.925366355555493e-05,1.50440881913526e-05,4.895025049378411e-05,7.519262872515567e-06,Sat
0.36242307700000076,5.424416489626637e-05,5.710308693176864e-05,7.925063907553743e-05,1.5056534012438852e-05,4.888987405825186e-05,7.525568522177348e-06,Sat
0.36294230800000005,5.3972699158517896e-05,5.71012962054658e-05,7.924549784162683e-05,1.5061250586463584e-05,4.8872939232663326e-05,7.56503959273427e-06,Sat
0.36346153800000014,5.3633454402925104e-05,5.708994910539412e-05,7.923922355055829e-05,1.5055249834817463e-05,4.8873101559835e-05,7.643216574519233e-06,Sat
0.3639807690000003,5.33042383169866e-05,5.7068256535617696e-05,7.923279836097252e-05,1.5042272677339691e-05,4.8859743815715e-05,7.735478515193679e-06,Sat
0.3645000000000005,5.302821589953384e-05,5.703968635183384e-05,7.92258884931886e-05,1.5031926649879277e-05,4.8838262539864166e-05,7.851310315040353e-06,Sat
0.36501923100000067,5.2825445683416086e-05,5.700376126334552e-05,7.921931488013498e-05,1.5026197573600865e-05,4.881314092233229e-05,8.04065121371946e-06,Sat
0.36553846200000084,5.266274174222291e-05,5.695075539731279e-05,7.921721459135332e-05,1.501801743891801e-05,4.877743021391776e-05,8.294901055609285e-06,Sat
0.36605769200000005,5.246882455812205e-05,5.686627738244743e-05,7.922218532363187e-05,1.4999098937992324e-05,4.872766926048492e-05,8.462209054373831e-06,Sat
0.3665769230000002,5.2213296560774415e-05,5.674118834520025e-05,7.922979759200837e-05,1.4966530222487065e-05,4.867394105123725e-05,8.47705790832511e-06,Sat
0.3670961540000004,5.1934890184917446e-05,5.657705901214101e-05,7.923559776805699e-05,1.492535483691755e-05,4.862870749089166e-05,8.507731617937714e-06,Sat
0.36761538500000057,5.174700078536844e-05,5.638361452742156e-05,7.92414865387081e-05,1.4883447850634447e-05,4.859203395759044e-05,8.580561204626504e-06,Sat
0.36813461500000066,5.173776924610418e-05,5.616211772737413e-05,7.924989805169551e-05,1.4848162255557852e-05,4.855103131824194e-05,8.594442501823245e-06,Sat
0.36865384600000084,5.183339320919172e-05,5.587764197521352e-05,7.926130077271496e-05,1.482690891930366e-05,4.849702019465509e-05,8.59977829471988e-06,Sat
0.3691730770000001,5.190857033276487e-05,5.545012201186005e-05,7.927534388078546e-05,1.4823123671530789e-05,4.843582610199565e-05,8.606921887346975e-06,Sat
0.3696923080000003,5.192503557259597e-05,5.480790942281034e-05,7.928878457781343e-05,1.4839055361029705e-05,4.836883411584933e-05,8.614154582997947e-06,Sat
0.3702115380000004,5.191306193610468e-05,5.39909772106592e-05,7.929703341812135e-05,1.4871063503180528e-05,4.8289746344269405e-05,8.683401432023622e-06,Sat
0.37073076900000057,5.195530118170799e-05,5.315395006161937e-05,7.929743844813935e-05,1.4896625974177996e-05,4.819796440245674e-05,8.778518783654193e-06,Sat
0.37125000000000075,5.207145562574184e-05,5.240328255364021e-05,7.928796789570826e-05,1.4904637774405582e-05,4.811624199724376e-05,8.833765702220387e-06,Sat
0.37176923100000003,5.216073462677967e-05,5.168356561841022e-05,7.926215076903873e-05,1.4910994638723683e-05,4.807647630310072e-05,8.850785154662625e-06,Sat
0.3722884620000002,5.218284794283237e-05,5.0838593302632586e-05,7.919938789187494e-05,1.4920588216701102e-05,4.807277831464232e-05,8.853872424788455e-06,Sat
0.3728076920000003,5.218328769422887e-05,4.9756683751586935e-05,7.904095531593888e-05,1.49301725286381e-05,4.80769157369437e-05,8.845040954819069e-06,Sat
0.3733269230000005,5.218278165793349e-05,4.851429439894375e-05,7.864267295121226e-05,1.4944946494379806e-05,4.808012307298718e-05,8.823300984025189e-06,Sat
0.37384615400000065,5.218140994898814e-05,4.7344309011369545e-05,7.775956666695498e-05,1.4961011775852232e-05,4.808438687926458e-05,8.808398493532664e-06,Sat
0.3743653850000008,5.214773509771812e-05,4.640801149760127e-05,7.621041839506591e-05,1.497011933331278e-05,4.807746854316359e-05,8.807873178775182e-06,Sat
0.37488461500000003,5.206459129456549e-05,4.56887859824463e-05,7.415605019472502e-05,1.497357006474638e-05,4.803792254559001e-05,8.811246178472153e-06,Sat
0.3754038460000002,5.199245422928053e-05,4.510897525153751e-05,7.205229724566957e-05,1.4974494894241557e-05,4.79720153585357e-05,8.81412640368114e-06,Sat
0.3759230770000004,5.1976245741523645e-05,4.465303385857967e-05,7.021754122339094e-05,1.4970713607756529e-05,4.7916044309012426e-05,8.815592040071877e-06,Sat
0.37644230800000056,5.200416141718115e-05,4.436575527549112e-05,6.860370932321954e-05,1.4956783282125484e-05,4.788702540724337e-05,8.814955946126166e-06,Sat
0.37696153800000065,5.205270373151258e-05,4.425352161527104e-05,6.698223701651113e-05,1.4933387943351525e-05,4.786828376444647e-05,8.818001258217395e-06,Sat
0.3774807690000008,5.207700445876104e-05,4.424108754874657e-05,6.522193008761427e-05,1.490941493769274e-05,4.7830186475499336e-05,8.831852381554922e-06,Sat
0.3780000000000001,5.204698366072996e-05,4.423544044104951e-05,6.343573496439434e-05,1.4889559589827646e-05,4.772462094701592e-05,8.849841082413489e-06,Sat
0.3785192310000003,5.19928559430012e-05,4.416548464748908e-05,6.186107981753512e-05,1.487390801212378e-05,4.750118431447364e-05,8.857742746938693e-06,Sat
0.37903846200000046,5.195634799554128e-05,4.396660813238536e-05,6.061142450083302e-05,1.4863979699776631e-05,4.7172267073681965e-05,8.85739180198491e-06,Sat
0.37955769200000056,5.196876001858932e-05,4.359564152213743e-05,5.965538543527359e-05,1.4857654677722776e-05,4.681239662479897e-05,8.858889438804835e-06,Sat
0.38007692300000073,5.204274924291389e-05,4.307533708317175e-05,5.898801627472867e-05,1.4854720131546051e-05,4.648894300886137e-05,8.862044693341004e-06,Sat
0.380596154,5.2124163393707206e-05,4.247282720056042e-05,5.867393639461488e-05,1.4861187145559656e-05,4.623356450485127e-05,8.861791347269184e-06,Sat
0.3811153850000002,5.214541584457623e-05,4.182057317690032e-05,5.8652148878515785e-05,1.4867957018979413e-05,4.604007718579428e-05,8.856160564673454e-06,Sat
0.3816346150000003,5.20920803458648e-05,4.109154975668987e-05,5.862944915755014e-05,1.4855470236926611e-05,4.586559148942928e-05,8.847929821127906e-06,Sat
0.38215384600000046,5.196275902897948e-05,4.025314954746618e-05,5.831643773428464e-05,1.483707229058934e-05,4.565444448486131e-05,8.841316289576973e-06,Sat
0.38267307700000064,5.180361671599798e-05,3.932949465324776e-05,5.76319234548475e-05,1.4837823949738011e-05,4.537275022193163e-05,8.836406115310924e-06,Sat
0.3831923080000008,5.169694513270124e-05,3.83847259050996e-05,5.661024847057868e-05,1.4846427193162695e-05,4.5053426556218255e-05,8.83163897535904e-06,Sat
0.383711538,5.163690727826426e-05,3.744749518878228e-05,5.526174173645465e-05,1.4848706931973135e-05,4.478092661956441e-05,8.827833115218884e-06,Sat
0.3842307690000002,5.156416654842005e-05,3.649032141751006e-05,5.357750551733269e-05,1.4848420144179808e-05,4.459495104451296e-05,8.825928247884493e-06,Sat
0.38475000000000037,5.140552350328768e-05,3.548761414857703e-05,5.160561776475195e-05,1.4847228194921328e-05,4.446149797386666e-05,8.824104305072675e-06,Sat
0.38526923100000054,5.108886529736798e-05,3.447757632234412e-05,4.947112784262015e-05,1.4837206263443644e-05,4.432835780118947e-05,8.821028043548622e-06,Sat
0.3857884620000007,5.0683711629337817e-05,3.353786076120567e-05,4.731281831910026e-05,1.479531382139815e-05,4.416669780826884e-05,8.818737111891301e-06,Sat
0.3863076920000008,5.033955338924715e-05,3.2695807486580576e-05,4.521521219960448e-05,1.4708539974026052e-05,4.400001674182601e-05,8.818949213042e-06,Sat
0.3868269230000001,5.008604111991067e-05,3.19035400208608e-05,4.3202649708022175e-05,1.459458431463914e-05,4.3884095851943856e-05,8.819835627209187e-06,Sat
