Time,Rectus Femoris,Vastus Medialis,Vastus Lateralis,Bicep Femoris,Tibialis,Gastrocnemius Medialis,Activity
0.0002596199999977955,1.1972312536901729e-05,9.495954254258043e-06,3.4328697140220444e-05,2.4747648709245557e-05,4.3736654647316e-05,6.281709443761729e-06,Unknown
0.0007788499999996645,1.2019663415192911e-05,9.49756605274292e-06,3.429205434528097e-05,2.471063811193216e-05,4.374061449446448e-05,6.275478875894453e-06,Unknown
0.0012980799999979808,1.2035625004069845e-05,9.490713412475991e-06,3.425730519002908e-05,2.4675878969889667e-05,4.374119821535165e-05,6.272953896126845e-06,Unknown
0.0018173099999998499,1.2062282150987426e-05,9.458801787376558e-06,3.4214580067876885e-05,2.4641989369055852e-05,4.372957657869525e-05,6.274249009174919e-06,Unknown
0.002336539999998166,1.212478534790367e-05,9.420275041864756e-06,3.4151952158520207e-05,2.46140640455401e-05,4.37115981978143e-05,6.279207648938522e-06,Unknown
0.0028557700000000352,1.226118999641241e-05,9.4084881985006e-06,3.407516142523018e-05,2.45956619892461e-05,4.3697384333340176e-05,6.286105703782433e-06,Unknown
0.0033749999999983515,1.246047651716462e-05,9.414093256151052e-06,3.4003432932332365e-05,2.4583660913971857e-05,4.368702170114012e-05,6.292900408437005e-06,Unknown
0.0038942300000002206,1.2603515644828165e-05,9.421072472208102e-06,3.3951657492572066e-05,2.4572874107170737e-05,4.367126534862883e-05,6.301233732327766e-06,Unknown
0.004413459999998537,1.2655194082843402e-05,9.428014435333522e-06,3.3917096972103e-05,2.4560476612937477e-05,4.363248470342615e-05,6.310185793091612e-06,Unknown
0.004932690000000406,1.2678723246869317e-05,9.431551972506154e-06,3.3888428799959175e-05,2.4548506715098635e-05,4.355404363449368e-05,6.315148305791714e-06,Unknown
0.005451919999998722,1.2695532512112854e-05,9.431855538592876e-06,3.3863587722769924e-05,2.454167525834266e-05,4.343432178282224e-05,6.315824819177537e-06,Unknown
0.005971150000000591,1.2713334203998689e-05,9.432058662636278e-06,3.384445273931539e-05,2.4540066912970247e-05,4.33014313116522e-05,6.315460549396516e-06,Unknown
0.006490379999998908,1.274345803227379e-05,9.436746587631152e-06,3.3828169477203174e-05,2.454011406623637e-05,4.320843520570104e-05,6.320144404444178e-06,Unknown
0.007009619999998051,1.2773813921758848e-05,9.45157979361286e-06,3.3812179369899414e-05,2.454037782165884e-05,4.317924955978426e-05,6.340684661710712e-06,Unknown
0.00752884999999992,1.281929028461278e-05,9.477567224677612e-06,3.379898489061446e-05,2.4540643759112822e-05,4.317989643779345e-05,6.3769835242141935e-06,Unknown
0.008048079999998237,1.2905981464461985e-05,9.50990148983448e-06,3.379508243804966e-05,2.4540711435508316e-05,4.316177360789285e-05,6.40853192418532e-06,Unknown
0.008567310000000106,1.3008612082698992e-05,9.54222068174922e-06,3.379771919806029e-05,2.454071574430968e-05,4.308785209257324e-05,6.424029580645516e-06,Unknown
0.009086539999998422,1.3094473059370888e-05,9.572538618503234e-06,3.379347728624222e-05,2.4538298635811197e-05,4.292739155413098e-05,6.430415866124127e-06,Unknown
0.009605770000000291,1.317658818570334e-05,9.602829381974166e-06,3.3776827493495814e-05,2.453022182213324e-05,4.268458932134519e-05,6.433005326819393e-06,Unknown
0.010124999999998607,1.3298863531040431e-05,9.63265465941006e-06,3.37520919010368e-05,2.4517641547934503e-05,4.242631980663872e-05,6.433742937750668e-06,Unknown
0.010644230000000476,1.3486435686044287e-05,9.65629785963632e-06,3.372392025091019e-05,2.4502385050421097e-05,4.222496856547168e-05,6.433694290351425e-06,Unknown
0.011163459999998793,1.3669945353221796e-05,9.668180955508009e-06,3.369583553601994e-05,2.44822932052254e-05,4.209709932360532e-05,6.432375335409129e-06,Unknown
0.011682690000000662,1.3757010780802772e-05,9.669512511542235e-06,3.3670919848885654e-05,2.445554375501825e-05,4.201952532098023e-05,6.429294792403932e-06,Unknown
0.012201919999998978,1.377153364068088e-05,9.666836757380558e-06,3.364930798303353e-05,2.442307698903282e-05,4.1963066567067184e-05,6.431913967473302e-06,Unknown
0.012721150000000847,1.3775823374479316e-05,9.664726921775408e-06,3.362553445831553e-05,2.4386236620176496e-05,4.190082742424285e-05,6.444009888563136e-06,Unknown
0.013240379999999163,1.3791293098616631e-05,9.663571243798468e-06,3.3594053503679945e-05,2.434682596424544e-05,4.181458198002028e-05,6.45394230820457e-06,Unknown
0.013759619999998307,1.3831315483710931e-05,9.663550385357389e-06,3.355236126800899e-05,2.4306290994854905e-05,4.172546818480918e-05,6.455157977823416e-06,Unknown
0.014278850000000176,1.3862539754423716e-05,9.663525253098068e-06,3.3502317883379225e-05,2.426610607214714e-05,4.168167387189607e-05,6.450463987771614e-06,Unknown
0.014798079999998492,1.3859590714826462e-05,9.668289189103856e-06,3.3452859421214185e-05,2.4232871661616965e-05,4.167917953247821e-05,6.443395102690453e-06,Unknown
0.015317310000000361,1.3856785564667026e-05,9.69328484708826e-06,3.341285604226116e-05,2.4212954149903555e-05,4.1674704963035146e-05,6.438533054865059e-06,Unknown
0.015836539999998678,1.385556244352561e-05,9.74150295032912e-06,3.338516581448094e-05,2.420273940056843e-05,4.165903904848989e-05,6.437115978406308e-06,Unknown
0.016355770000000547,1.3849142911133962e-05,9.795156051271193e-06,3.336775836275976e-05,2.419233184814177e-05,4.164019931610191e-05,6.4374976331033134e-06,Unknown
0.016874999999998863,1.3848676870478888e-05,9.83587283121114e-06,3.335363960702468e-05,2.4167845282815664e-05,4.161312916756389e-05,6.438529902912793e-06,Unknown
0.017394230000000732,1.3854880846710525e-05,9.85768241287425e-06,3.333694297169282e-05,2.41154702089504e-05,4.156893804453653e-05,6.441676054305843e-06,Unknown
0.01791345999999905,1.3903646564664647e-05,9.863497039110244e-06,3.332185296724008e-05,2.4040751589041444e-05,4.152231313442696e-05,6.44818562338463e-06,Unknown
0.018432690000000918,1.3995899849809404e-05,9.854527762953547e-06,3.331293616703485e-05,2.396743124442229e-05,4.150173933944229e-05,6.446188697268942e-06,Unknown
0.018951919999999234,1.4065476277430252e-05,9.833952957023745e-06,3.330578714886824e-05,2.390826173732669e-05,4.150175592839283e-05,6.426034489840685e-06,Unknown
0.019471150000001103,1.4102105601333354e-05,9.8214453981132e-06,3.330356751211636e-05,2.3855219271821316e-05,4.150254836521162e-05,6.405226823575849e-06,Unknown
0.01999037999999942,1.4128168726411356e-05,9.842703927997e-06,3.3321428869434095e-05,2.3795935201455575e-05,4.1501237193629377e-05,6.403022451034921e-06,Unknown
0.020509619999998563,1.4143922777434483e-05,9.894310037451428e-06,3.336376166715087e-05,2.372849839568479e-05,4.149319755817679e-05,6.414928033138523e-06,Unknown
0.021028850000000432,1.417040998164535e-05,9.940544622209493e-06,3.3420442605413754e-05,2.3663118619233438e-05,4.146218680504916e-05,6.4314750515118345e-06,Unknown
0.021548079999998748,1.4222760784657434e-05,9.96139639657338e-06,3.3485104385842074e-05,2.3610031004392775e-05,4.140229792445931e-05,6.448447729414691e-06,Unknown
0.022067310000000617,1.430854784319871e-05,9.968970038301395e-06,3.35614655050355e-05,2.356964168038913e-05,4.133609802562554e-05,6.45719800356208e-06,Unknown
0.022586539999998934,1.4465151797113272e-05,9.972727950347994e-06,3.3657599862286715e-05,2.3537418210229283e-05,4.128960704741729e-05,6.451397678484422e-06,Unknown
0.023105770000000803,1.4682403838903186e-05,9.973325030300493e-06,3.378361933626286e-05,2.3509678198024552e-05,4.126827074063166e-05,6.435714809661162e-06,Unknown
0.02362499999999912,1.48816714721138e-05,9.979152044523644e-06,3.395227837882984e-05,2.3486790781000637e-05,4.126508113102642e-05,6.41291911528633e-06,Unknown
0.024144230000000988,1.50360362931248e-05,9.998680152512036e-06,3.416800382578782e-05,2.347254051520549e-05,4.127132007069332e-05,6.385702183274771e-06,Unknown
0.024663459999999304,1.5193896753649131e-05,1.0037151105091668e-05,3.440127136396507e-05,2.346584639570259e-05,4.127885050026045e-05,6.3556509377044775e-06,Unknown
0.025182690000001173,1.5405081757323848e-05,1.0094646339669931e-05,3.4586410914691715e-05,2.346173516365184e-05,4.1282587790032605e-05,6.315652587507336e-06,Unknown
0.02570191999999949,1.563794866240045e-05,1.0149588766828637e-05,3.467692194620706e-05,2.3458982856046985e-05,4.1280149909408974e-05,6.2897768229735774e-06,Unknown
0.026221149999997806,1.578810090604817e-05,1.0176835192292798e-05,3.469580141583634e-05,2.345822823715213e-05,4.1266271056886186e-05,6.319738577753882e-06,Unknown
0.026740379999999675,1.583353499116591e-05,1.0180645954622708e-05,3.469511885924748e-05,2.3458559703195224e-05,4.124046469674803e-05,6.396961144124121e-06,Unknown
0.02725961999999882,1.5833139219786848e-05,1.0180555331388094e-05,3.46899816501249e-05,2.345870031909308e-05,4.121926910927685e-05,6.482099532970229e-06,Unknown
0.027778850000000688,1.5816698755575244e-05,1.0182831359467386e-05,3.467308779030014e-05,2.3458243540833647e-05,4.121438002493538e-05,6.553697739321457e-06,Unknown
0.028298079999999004,1.584570921692812e-05,1.0184146179492067e-05,3.464946807682344e-05,2.345736138734828e-05,4.121449886214614e-05,6.606438706647442e-06,Unknown
0.028817310000000873,1.5971812185155298e-05,1.0182082748387108e-05,3.462517032185433e-05,2.345548309614805e-05,4.121128662030225e-05,6.636473234179843e-06,Unknown
0.02933653999999919,1.6121343486761068e-05,1.0176548431592616e-05,3.460010231161564e-05,2.3453347654122613e-05,4.12054401604492e-05,6.646076328857985e-06,Unknown
0.02985577000000106,1.6220485933107135e-05,1.0170715866135832e-05,3.457445194100102e-05,2.345257564738299e-05,4.118813493481409e-05,6.646533721451294e-06,Unknown
0.030374999999999375,1.6276003803015856e-05,1.0170122277429128e-05,3.454833567951715e-05,2.3451315540036743e-05,4.114136970524475e-05,6.647108160855769e-06,Unknown
0.030894230000001244,1.631923059402477e-05,1.0179563337020004e-05,3.4525466048578404e-05,2.3448816663277747e-05,4.105549586837549e-05,6.65085162060495e-06,Unknown
0.03141345999999956,1.6396455481155305e-05,1.0197205249199095e-05,3.4507878633767346e-05,2.344924327028472e-05,4.096729718660598e-05,6.656131390341921e-06,Unknown
0.031932689999997876,1.650119212906126e-05,1.0215589443142389e-05,3.448284005252102e-05,2.345490386316364e-05,4.093094722001831e-05,6.659125396657897e-06,Unknown
0.032451919999999745,1.657030962929615e-05,1.022561709194786e-05,3.443296681670942e-05,2.346216981554267e-05,4.093059555216119e-05,6.65959021911942e-06,Unknown
0.03297114999999806,1.659959447161972e-05,1.022041153208005e-05,3.436850254252158e-05,2.3467050923980325e-05,4.092483775681127e-05,6.661433131766287e-06,Unknown
0.03349037999999993,1.6617457938302052e-05,1.0206762976644292e-05,3.432069627090557e-05,2.346953240542004e-05,4.092398108785146e-05,6.666836551904567e-06,Unknown
0.034009619999999074,1.6624749187728188e-05,1.01977220669835e-05,3.429754427307838e-05,2.3470686372261023e-05,4.090608438147153e-05,6.672015816171056e-06,Unknown
0.034528850000000944,1.6627906859163045e-05,1.0194682173595098e-05,3.4282151640567394e-05,2.3471118020650987e-05,4.078249364462347e-05,6.6732802254594415e-06,Unknown
0.03504807999999926,1.6628557946265904e-05,1.0191977891639514e-05,3.426064803678031e-05,2.3471518253037303e-05,4.054125278042646e-05,6.672975681330223e-06,Unknown
0.03556731000000113,1.6618893542019234e-05,1.0187689743726728e-05,3.423803945549e-05,2.3473044023074232e-05,4.028698447215163e-05,6.673628616763768e-06,Unknown
0.036086539999999445,1.6620415499444543e-05,1.0183745969466236e-05,3.422613210522078e-05,2.347740715363921e-05,4.010291995788495e-05,6.674681542146332e-06,Unknown
0.036605770000001314,1.6676163539957205e-05,1.0180287885432264e-05,3.42224547397531e-05,2.3483148731370568e-05,3.998593083347182e-05,6.675839781084731e-06,Unknown
0.03712499999999963,1.682806610525929e-05,1.018358648478432e-05,3.422455199226671e-05,2.348461675569317e-05,3.990447977472192e-05,6.6776146639210905e-06,Unknown
0.03764422999999795,1.707086997005158e-05,1.0212544127789912e-05,3.425059287226088e-05,2.3477585798047527e-05,3.985078238544836e-05,6.679203232607854e-06,Unknown
0.038163459999999816,1.730554969837592e-05,1.0270012696896624e-05,3.43208761243247e-05,2.34617866000145e-05,3.9839727671851766e-05,6.675400624078336e-06,Unknown
0.03868268999999813,1.7439442575016498e-05,1.0333983310150788e-05,3.441824928633368e-05,2.344016894923881e-05,3.983403204430567e-05,6.665778347915948e-06,Unknown
0.03920192,1.7489121793658595e-05,1.0390493146123613e-05,3.449326062737179e-05,2.341800614455339e-05,3.970760351450888e-05,6.661128059276793e-06,Unknown
0.03972114999999832,1.7523412172456662e-05,1.044267677242364e-05,3.452346214526309e-05,2.3398748181505288e-05,3.945928820937748e-05,6.6623771183734206e-06,Unknown
0.04024038000000019,1.762260414434032e-05,1.0492197256567284e-05,3.4529660751361775e-05,2.338392432476792e-05,3.931770212199704e-05,6.661744455247573e-06,Unknown
0.04075961999999933,1.784260923800984e-05,1.0527703936192891e-05,3.453280837077843e-05,2.3372759011575917e-05,3.931750371957746e-05,6.655021996096787e-06,Unknown
0.0412788500000012,1.810808991144426e-05,1.0539193604575436e-05,3.454397430008716e-05,2.33585244727979e-05,3.916828075714586e-05,6.6277695074179285e-06,Unknown
0.041798079999999516,1.8295640721654247e-05,1.0539081696611089e-05,3.456973093222269e-05,2.333751324677641e-05,3.876344115606012e-05,6.577577151147538e-06,Unknown
0.04231730999999783,1.838796223569053e-05,1.0552018492510305e-05,3.4602197804414936e-05,2.3314068046062943e-05,3.827884669587317e-05,6.535093988273959e-06,Unknown
0.0428365399999997,1.84273839641175e-05,1.0582912799997604e-05,3.463507353063278e-05,2.329128738584273e-05,3.7832833394095264e-05,6.512773484014771e-06,Unknown
0.04335576999999802,1.8461872637247244e-05,1.0608524696342892e-05,3.4676233751031414e-05,2.327040309966337e-05,3.7409586781799006e-05,6.496394043791321e-06,Unknown
0.043874999999999886,1.8518638541398472e-05,1.0615363766217924e-05,3.4734880271106885e-05,2.3253303726204197e-05,3.699976251331488e-05,6.500779714630223e-06,Unknown
0.0443942299999982,1.8561895065584625e-05,1.0619866507889973e-05,3.4811000433703016e-05,2.3240149538873032e-05,3.668057936647933e-05,6.540960091780522e-06,Unknown
0.04491346000000007,1.8569519223637197e-05,1.063514161777193e-05,3.4889188040716364e-05,2.3230888624321977e-05,3.6539942419114654e-05,6.584237310909465e-06,Unknown
0.04543268999999839,1.8566313882932857e-05,1.0654408706826083e-05,3.494972170882304e-05,2.322564489189017e-05,3.6535514680912135e-05,6.602468702895795e-06,Unknown
0.04595192000000026,1.855625485202688e-05,1.0667511787052426e-05,3.498734435180013e-05,2.322321551356077e-05,3.641989001603581e-05,6.60515446199631e-06,Unknown
0.04647114999999857,1.8545741169297512e-05,1.0672652180231144e-05,3.500531054032645e-05,2.3222244829142517e-05,3.579445930541135e-05,6.604358250535825e-06,Unknown
0.04699038000000044,1.854894532485134e-05,1.067407391619518e-05,3.5010842302917205e-05,2.3222324985009544e-05,3.448698646997956e-05,6.600642781586775e-06,Unknown
0.047509619999999586,1.85455599658454e-05,1.0677848328988533e-05,3.501331691120743e-05,2.3223562567800146e-05,3.303024014023874e-05,6.589687853134015e-06,Unknown
0.0480288499999979,1.8528161688639937e-05,1.0686692859454228e-05,3.501459648138099e-05,2.322433024738432e-05,3.219574157947759e-05,6.572832744654867e-06,Unknown
0.04854807999999977,1.8517236942875973e-05,1.0691536068705854e-05,3.501297223686577e-05,2.322189946072173e-05,3.197949753315604e-05,6.558835132255298e-06,Unknown
0.04906730999999809,1.8517548202715077e-05,1.0683304170371112e-05,3.501000412228335e-05,2.3216615331866792e-05,3.1948581627048085e-05,6.553713862258916e-06,Unknown
0.04958653999999996,1.8521200470411997e-05,1.06716873838301e-05,3.500922041766468e-05,2.3210481937589296e-05,3.19249132762972e-05,6.555436460679043e-06,Unknown
0.05010576999999827,1.8519101033117365e-05,1.0679002159764276e-05,3.50169512177253e-05,2.3201381650888414e-05,3.18786155248774e-05,6.55686012734431e-06,Unknown
0.05062500000000014,1.8510594447063185e-05,1.071199665368948e-05,3.503452431026047e-05,2.31805149098573e-05,3.18652973645076e-05,6.555958107957708e-06,Unknown
0.05114422999999846,1.8507374246371368e-05,1.0741537596684564e-05,3.505180555107128e-05,2.3137161554964355e-05,3.184452994955672e-05,6.5542114006030745e-06,Unknown
0.05166346000000033,1.8512194863271608e-05,1.073660645629232e-05,3.506345995200407e-05,2.306920449335248e-05,3.1648294825436755e-05,6.553576533038676e-06,Unknown
0.052182689999998644,1.853027935130643e-05,1.0712430901531828e-05,3.5067736805982724e-05,2.2985302979898688e-05,3.1302163237532506e-05,6.552581570150444e-06,Unknown
0.05270192000000051,1.8576899734467007e-05,1.070436148870565e-05,3.506001498894162e-05,2.289561165959257e-05,3.098001945930102e-05,6.545163901984926e-06,Unknown
0.05322114999999883,1.86360205698344e-05,1.0722639268562151e-05,3.504909911924429e-05,2.2806476366314465e-05,3.0746562118254016e-05,6.526358953837107e-06,Unknown
0.0537403800000007,1.867396070014016e-05,1.075418267832325e-05,3.504625935120355e-05,2.2721284986578656e-05,3.055478530458005e-05,6.491158104957585e-06,Unknown
0.05425961999999984,1.8684963456831195e-05,1.0780670082285144e-05,3.504844053723121e-05,2.2637018210060037e-05,3.034810874564777e-05,6.4369989856491055e-06,Unknown
0.05477884999999816,1.867048958217181e-05,1.0792707553041316e-05,3.50498210411748e-05,2.253939030894222e-05,3.0106480740884543e-05,6.374311108632974e-06,Unknown
0.05529808000000003,1.8649518098992684e-05,1.079362044556207e-05,3.505044023762754e-05,2.2406038775627662e-05,2.9860008505900877e-05,6.328537355255008e-06,Unknown
0.055817309999998344,1.865765232925929e-05,1.0792827787508593e-05,3.505367856436125e-05,2.222276782826503e-05,2.96820294704374e-05,6.315329124155682e-06,Unknown
0.05633654000000021,1.8671897014148925e-05,1.079654409920106e-05,3.505902796663747e-05,2.200322767100717e-05,2.962997463852544e-05,6.315193551696517e-06,Unknown
0.05685576999999853,1.8663695192744107e-05,1.0800221971427589e-05,3.5058775658984784e-05,2.178013510745345e-05,2.962674301046962e-05,6.298565869451784e-06,Unknown
0.0573750000000004,1.86607139996624e-05,1.0796803315048697e-05,3.504663606661844e-05,2.157261696321827e-05,2.9377893550801507e-05,6.270117869367831e-06,Unknown
0.057894229999998714,1.867080992086118e-05,1.0790794350577723e-05,3.5029112723415135e-05,2.137415023924657e-05,2.8411472739277496e-05,6.255590770063847e-06,Unknown
0.05841346000000058,1.868043943906033e-05,1.0789204871664072e-05,3.502370790667916e-05,2.1166711295207776e-05,2.6287111824129032e-05,6.251035239350655e-06,Unknown
0.0589326899999989,1.8680434693581255e-05,1.0790774651067949e-05,3.50429873452178e-05,2.093686092694401e-05,2.309094479267283e-05,6.247496357578551e-06,Unknown
0.05945192000000077,1.8672119929445247e-05,1.0792815206062374e-05,3.5082245072613875e-05,2.068298651777567e-05,1.9923270485793278e-05,6.273526510128003e-06,Unknown
0.059971149999999085,1.8692556590086374e-05,1.0791118443478096e-05,3.5126403499253604e-05,2.0414070152657525e-05,1.816669091186046e-05,6.319309239959472e-06,Unknown
0.060490380000000954,1.873878730137017e-05,1.0782070719535813e-05,3.517017319191121e-05,2.0144276794625637e-05,1.7749663917355587e-05,6.309144555796227e-06,Unknown
0.0610096200000001,1.876972434797419e-05,1.0772967162911788e-05,3.52233868616851e-05,1.988726436225775e-05,1.77262128510577e-05,6.216425159501263e-06,Unknown
0.061528849999998414,1.8813060836274123e-05,1.0770383923206437e-05,3.529435809090341e-05,1.9652295178141144e-05,1.7730732361443918e-05,6.098152072700637e-06,Unknown
0.06204808000000028,1.890612822976157e-05,1.0770725544174035e-05,3.53789339020357e-05,1.9445331366150296e-05,1.7734243209665552e-05,6.007578913235767e-06,Unknown
0.0625673099999986,1.90120651536215e-05,1.0770455398004566e-05,3.5467371514168e-05,1.927334590683089e-05,1.77003456550213e-05,5.946423600404937e-06,Unknown
0.06308654000000047,1.908543823494037e-05,1.0764380433419412e-05,3.555276525001132e-05,1.914142288830689e-05,1.7317650622985497e-05,5.889005459848262e-06,Unknown
0.06360576999999878,1.9127457012202724e-05,1.0748772572802854e-05,3.562976091489178e-05,1.9043659549936063e-05,1.6316628626233185e-05,5.810186477224644e-06,Unknown
0.06412500000000065,1.915601559301383e-05,1.0733898759533483e-05,3.56894311963512e-05,1.8964475142345357e-05,1.5285391157139346e-05,5.709680932460444e-06,Unknown
0.06464422999999897,1.918484990094912e-05,1.0732528219507647e-05,3.572053030934109e-05,1.8890617965428944e-05,1.4929832847275766e-05,5.623452960030657e-06,Unknown
0.06516346000000084,1.9214870342277448e-05,1.0749231244718666e-05,3.572471703276406e-05,1.882116368524144e-05,1.493053155444358e-05,5.588256710824741e-06,Unknown
0.06568268999999916,1.9228687324641923e-05,1.0783888488398997e-05,3.5718930486901775e-05,1.8766269438626344e-05,1.494093561955696e-05,5.598647008353038e-06,Unknown
0.06620192000000102,1.9216517207751376e-05,1.0826719619066936e-05,3.5712025500235224e-05,1.873309417889123e-05,1.4903423869973117e-05,5.6156373474299625e-06,Unknown
0.06672114999999934,1.919274376999317e-05,1.0860677701621568e-05,3.569268982701615e-05,1.8718387084758472e-05,1.464360170031264e-05,5.60465158845446e-06,Unknown
0.06724038000000121,1.9196900639447692e-05,1.0879801021904572e-05,3.5638414436481525e-05,1.871478691377964e-05,1.4555552717453153e-05,5.560584841998131e-06,Unknown
0.06775962000000035,1.9229521054141716e-05,1.0896104288876312e-05,3.5541766520886664e-05,1.871554788025463e-05,1.4511674063993342e-05,5.514783372859865e-06,Unknown
0.06827884999999867,1.921532839181354e-05,1.0924733851595168e-05,3.54280110144221e-05,1.8714781983572877e-05,1.3516585376263852e-05,5.522071280847414e-06,Unknown
0.06879808000000054,1.9151523762716588e-05,1.0968283080129117e-05,3.532846790493198e-05,1.870877645485857e-05,1.217800662937866e-05,5.614052755707701e-06,Unknown
0.06931730999999886,1.9120510116999897e-05,1.1017608846612378e-05,3.5251651717357515e-05,1.8694367340289725e-05,1.1777189456183805e-05,5.747278030998229e-06,Unknown
0.06983654000000072,1.91281653560196e-05,1.1064112972227316e-05,3.518979409333525e-05,1.866075937373653e-05,1.178254117105782e-05,5.849570517108687e-06,Unknown
0.07035576999999904,1.9134719862759663e-05,1.1108677301250247e-05,3.513517548693137e-05,1.858164330374076e-05,1.176069866356419e-05,5.904219568265344e-06,Unknown
0.07087500000000091,1.912138376584099e-05,1.115576728589938e-05,3.508512217230367e-05,1.8425781578651758e-05,1.1767240298467523e-05,5.934721944125888e-06,Unknown
0.07139422999999923,1.908173607008981e-05,1.1200959856213046e-05,3.503934846860192e-05,1.819007446676827e-05,1.1624196951608582e-05,5.955338753149928e-06,Unknown
0.0719134600000011,1.9059798541008537e-05,1.1234147242487286e-05,3.499589829106235e-05,1.7903995636975288e-05,1.1481319452416316e-05,5.964027336843241e-06,Unknown
0.07243268999999941,1.909466802520623e-05,1.125134177963848e-05,3.495419389558065e-05,1.7586430788743413e-05,1.145407633661207e-05,5.959950817070352e-06,Unknown
0.07295192000000128,1.9153538255710688e-05,1.1257361677724788e-05,3.492967781156039e-05,1.7218219715905795e-05,1.1455383128494489e-05,5.948145552988077e-06,Unknown
0.0734711499999996,1.919808830759103e-05,1.1260814253243584e-05,3.495197539690289e-05,1.6762684480825375e-05,1.1448493014940856e-05,5.926576746316041e-06,Unknown
0.07399037999999791,1.9217388657560192e-05,1.1268598251881371e-05,3.502211234603786e-05,1.621060009999336e-05,1.1410750646957176e-05,5.8976919125497775e-06,Unknown
0.07450962000000061,1.923527106771085e-05,1.1285086077706928e-05,3.509500886624943e-05,1.5604903888384142e-05,1.1360264599549194e-05,5.87861115822698e-06,Unknown
0.07502884999999893,1.930345805968352e-05,1.1305836580839736e-05,3.513710240711072e-05,1.5003852992912323e-05,1.1331298300915563e-05,5.875969218580283e-06,Unknown
0.0755480800000008,1.9410894301576128e-05,1.1316159434102849e-05,3.515713911414288e-05,1.4422249424089108e-05,1.1322376106652942e-05,5.873245793083837e-06,Unknown
0.07606730999999911,1.9501320206148907e-05,1.1308539224153577e-05,3.51677332065728e-05,1.38286679278882e-05,1.1322100341341933e-05,5.857566140176836e-06,Unknown
0.07658654000000098,1.957363769863888e-05,1.1283328083176109e-05,3.516295247187041e-05,1.3196336512395086e-05,1.131847067407086e-05,5.840695785588223e-06,Unknown
0.0771057699999993,1.964950198191197e-05,1.1233690411408576e-05,3.511259114171404e-05,1.254546917140783e-05,1.1279061745720876e-05,5.836495403589309e-06,Unknown
0.07762500000000117,1.9715631874902333e-05,1.1157820004405976e-05,3.4943894583794595e-05,1.1922387236627487e-05,1.1170772415182294e-05,5.836828441525781e-06,Unknown
0.07814422999999948,1.975993338593839e-05,1.1073045672582958e-05,3.456159036757768e-05,1.1342674289998595e-05,1.1015390844594913e-05,5.830050427613002e-06,Unknown
0.0786634599999978,1.979456139560277e-05,1.0993195838550856e-05,3.3916603895119375e-05,1.0786560307286572e-05,1.0861912776192409e-05,5.820498812149637e-06,Unknown
0.07918268999999967,1.9834475988970268e-05,1.0908460396177258e-05,3.3042722566551344e-05,1.0254238545412e-05,1.0724180318224608e-05,5.814584282158918e-06,Unknown
0.07970191999999798,1.987480943649471e-05,1.080350495274099e-05,3.202694388060059e-05,9.79774986416644e-06,1.0590854878290494e-05,5.810335303699984e-06,Unknown
0.08022114999999985,1.988792340859414e-05,1.06903218853668e-05,3.0964386352374284e-05,9.463051106898375e-06,1.045698991434164e-05,5.802569097232073e-06,Unknown
0.08074037999999817,1.9878305887970232e-05,1.0607653511615452e-05,2.9939015421501315e-05,9.228017823835534e-06,1.0326530302533667e-05,5.780131234046356e-06,Unknown
0.08125962000000087,1.987754664675766e-05,1.0572878841911074e-05,2.9017120956859485e-05,9.035602388304488e-06,1.0196818877449278e-05,5.734621630019335e-06,Unknown
0.08177884999999918,1.9864028004441276e-05,1.0566280200396489e-05,2.8224738549377772e-05,8.852416063001915e-06,1.0049493499486178e-05,5.6812793005772055e-06,Unknown
0.08229808000000105,1.9832844981931155e-05,1.0568430881725485e-05,2.754075454333648e-05,8.69182329666276e-06,9.860469350401896e-06,5.644220253407338e-06,Unknown
0.08281730999999937,1.9841043138687608e-05,1.0575460145011329e-05,2.694130951306556e-05,8.583967347438792e-06,9.645395896623388e-06,5.6256419638715705e-06,Unknown
0.08333654000000124,1.9866231759752187e-05,1.0596707106513486e-05,2.6456511993830804e-05,8.526622645063754e-06,9.46265729429726e-06,5.614549453108065e-06,Unknown
0.08385576999999955,1.983422345890694e-05,1.0644136788427853e-05,2.616296711985968e-05,8.491286722347403e-06,9.338016093743223e-06,5.604652736531413e-06,Unknown
0.08437499999999787,1.9760115288081908e-05,1.0710023393556558e-05,2.6068475376405356e-05,8.460535621609044e-06,9.253846244330034e-06,5.595692793742567e-06,Unknown
0.08489422999999974,1.968973433386705e-05,1.0770511425459176e-05,2.606359712767204e-05,8.440676033374262e-06,9.19135311183354e-06,5.593792393692299e-06,Unknown
0.08541345999999805,1.9628747819470067e-05,1.0805823555090725e-05,2.6065412121869744e-05,8.437988088836943e-06,9.145959870126734e-06,5.597202459975288e-06,Unknown
0.08593268999999992,1.957294576832129e-05,1.0826332328187583e-05,2.6068272238269405e-05,8.437855421305275e-06,9.124091446768978e-06,5.596517044073347e-06,Unknown
0.08645191999999824,1.9529971596964103e-05,1.0868154931425216e-05,2.60699270299824e-05,8.42170479143657e-06,9.11299464955504e-06,5.595049113811079e-06,Unknown
0.08697115000000011,1.951637243460074e-05,1.0944929723239368e-05,2.6069724869550388e-05,8.390225486303943e-06,9.08669089805209e-06,5.5950404675537446e-06,Unknown
0.08749037999999842,1.952393656554528e-05,1.1030920274815645e-05,2.606054109289912e-05,8.354394721769827e-06,9.031367301886462e-06,5.590894647479919e-06,Unknown
0.08800962000000112,1.9533149647023517e-05,1.1079112531963569e-05,2.603886406584265e-05,8.315057846776862e-06,8.952133558337917e-06,5.588747623336392e-06,Unknown
0.08852884999999944,1.954541213792765e-05,1.1070856464932254e-05,2.601975496296977e-05,8.264283852677304e-06,8.881821113475804e-06,5.595404851159729e-06,Unknown
0.0890480800000013,1.956036418122144e-05,1.1038912920628733e-05,2.60057094674904e-05,8.199947346031053e-06,8.847238097869712e-06,5.609370159864848e-06,Unknown
0.08956730999999962,1.9569310736284e-05,1.1013063916714242e-05,2.598389732758865e-05,8.128792553371094e-06,8.838943654645988e-06,5.628055502872551e-06,Unknown
0.09008653999999794,1.9570584488114183e-05,1.0993852241581874e-05,2.5930718107427947e-05,8.049037561780504e-06,8.838385114991847e-06,5.64355971897823e-06,Unknown
0.09060576999999981,1.9569800816559887e-05,1.0971178381331167e-05,2.582187013386785e-05,7.946539016641274e-06,8.83973243539439e-06,5.652249024911397e-06,Unknown
0.09112499999999812,1.957245177499393e-05,1.093713471086856e-05,2.5648017599802044e-05,7.818328907008532e-06,8.846070115468393e-06,5.656060558553103e-06,Unknown
0.09164423,1.958857176893081e-05,1.0898066583951527e-05,2.541725024725793e-05,7.684226291667953e-06,8.862234466037078e-06,5.652390932580669e-06,Unknown
0.09216345999999831,1.9609456407350276e-05,1.086298136674353e-05,2.517579702422484e-05,7.566452130894764e-06,8.882176783459781e-06,5.646176363711452e-06,Unknown
0.09268269000000018,1.961184322759759e-05,1.082566346254501e-05,2.5004550078490384e-05,7.46565188797207e-06,8.894963984687993e-06,5.6477825904224044e-06,Unknown
0.0932019199999985,1.960502785597534e-05,1.077228988002606e-05,2.493945655927234e-05,7.362723406048407e-06,8.901464498436564e-06,5.654010480915794e-06,Unknown
0.09372115000000036,1.960098272536372e-05,1.0703831707889275e-05,2.493275303635888e-05,7.23432360369645e-06,8.899594173214859e-06,5.655145091586759e-06,Unknown
0.09424037999999868,1.960333158223977e-05,1.0641011348512562e-05,2.4932316721618524e-05,7.078410092001023e-06,8.893238392141239e-06,5.657004417373035e-06,Unknown
0.09475961999999782,1.9623219757115352e-05,1.0594432891137726e-05,2.493098978240023e-05,6.924089007124316e-06,8.899118378176108e-06,5.674378105932085e-06,Unknown
0.09527884999999969,1.9647022412501288e-05,1.0554156397215827e-05,2.493255549249493e-05,6.795493593249414e-06,8.879025243841452e-06,5.702033847985135e-06,Unknown
0.09579807999999801,1.9655119022111276e-05,1.05058781381742e-05,2.4931397443687843e-05,6.685244185611361e-06,8.780372935070482e-06,5.720896269507829e-06,Unknown
0.09631730999999988,1.964371463475945e-05,1.0444081733841671e-05,2.4914902105643e-05,6.57058925002461e-06,8.655468366440364e-06,5.726194659126047e-06,Unknown
0.0968365399999982,1.9624640785978675e-05,1.0373933569681354e-05,2.486476410293882e-05,6.435668611454452e-06,8.581177104276568e-06,5.726204361179163e-06,Unknown
0.09735577000000006,1.9625382773779072e-05,1.0296256846156466e-05,2.4763777362152757e-05,6.286826079786213e-06,8.550626532743761e-06,5.72651013093625e-06,Unknown
0.09787499999999838,1.9626160447204816e-05,1.0204930238855364e-05,2.4612875338259342e-05,6.1501678232340655e-06,8.529671595871237e-06,5.721789498621433e-06,Unknown
0.09839423000000025,1.956213739985655e-05,1.011345254445378e-05,2.4438950373598705e-05,6.034200370546194e-06,8.502497209336755e-06,5.700658904772898e-06,Unknown
0.09891345999999857,1.9438715637404123e-05,1.005252731494635e-05,2.4265092029187302e-05,5.916531911034702e-06,8.477182289902577e-06,5.667222992923408e-06,Unknown
0.09943269000000043,1.933040805483578e-05,1.0030854320804208e-05,2.408526967298633e-05,5.779243994985934e-06,8.46749398142808e-06,5.639635119752651e-06,Unknown
0.09995191999999875,1.927130913993309e-05,1.0033747805379974e-05,2.3881331221192723e-05,5.61620617832601e-06,8.466877335648444e-06,5.622222326194543e-06,Unknown
0.10047115000000062,1.924285103273359e-05,1.0036631027685634e-05,2.3654447672092512e-05,5.431959360167779e-06,8.467642310918016e-06,5.607729780520576e-06,Unknown
0.10099037999999894,1.922012517910768e-05,1.0020571439873048e-05,2.3431206432191744e-05,5.254076930612325e-06,8.47133783772859e-06,5.592172391263763e-06,Unknown
0.10150961999999808,1.918993702978558e-05,9.995939854266507e-06,2.323203255077208e-05,5.105450628255849e-06,8.48386779936037e-06,5.578477230846854e-06,Unknown
0.10202884999999995,1.9161206992018484e-05,9.979157255281024e-06,2.304749093154516e-05,4.979801984243797e-06,8.483545859919387e-06,5.572497833055057e-06,Unknown
0.10254807999999827,1.9148471474070712e-05,9.967309918642596e-06,2.2850555420093357e-05,4.857848318604375e-06,8.423555197345853e-06,5.572154844031102e-06,Unknown
0.10306731000000013,1.914622881403878e-05,9.949260493067432e-06,2.2623554922564277e-05,4.735329731245317e-06,8.299827337212661e-06,5.573228996409535e-06,Unknown
0.10358653999999845,1.9143657817956647e-05,9.919670831411992e-06,2.238211499274427e-05,4.633592248900159e-06,8.146452337164205e-06,5.5748178415378695e-06,Unknown
0.10410577000000032,1.913369012933124e-05,9.884607483562298e-06,2.217135446616672e-05,4.569260771195567e-06,7.986955749176158e-06,5.574836638476158e-06,Unknown
0.10462499999999864,1.9102059545576584e-05,9.8498386931909e-06,2.2024591856251716e-05,4.533173777419749e-06,7.818984855839392e-06,5.573409012490188e-06,Unknown
0.1051442300000005,1.9059156354760463e-05,9.811966225689044e-06,2.1935272142772773e-05,4.507637927526953e-06,7.633672690028041e-06,5.572431969872997e-06,Unknown
0.10566345999999882,1.9037316961685252e-05,9.767142137572074e-06,2.187597151270047e-05,4.480931460496299e-06,7.451856679233088e-06,5.572479106495293e-06,Unknown
0.10618269000000069,1.9036991080832947e-05,9.72374970607503e-06,2.1823297589956063e-05,4.451129473979851e-06,7.306743749194908e-06,5.567544982037186e-06,Unknown
0.106701919999999,1.9026751600909914e-05,9.695583367260592e-06,2.176070509092961e-05,4.427088344194273e-06,7.201927162763716e-06,5.547785604796526e-06,Unknown
0.10722115000000088,1.8986734220998325e-05,9.683356500929572e-06,2.1673887443294134e-05,4.41595849919608e-06,7.119517923335947e-06,5.519320732009683e-06,Unknown
0.10774037999999919,1.894586234637392e-05,9.679651906066093e-06,2.1553522625322107e-05,4.414269114797499e-06,7.040030739473263e-06,5.501165798345227e-06,Unknown
0.10825961999999834,1.893927659611008e-05,9.68147157556284e-06,2.1411329836983012e-05,4.41828784877253e-06,6.958489521553138e-06,5.499283955017379e-06,Unknown
0.1087788500000002,1.8946764201727657e-05,9.690569962776244e-06,2.1289458376237742e-05,4.424872487021081e-06,6.88558000518954e-06,5.5022244597281226e-06,Unknown
0.10929807999999852,1.894514360069696e-05,9.705907608718612e-06,2.1228267085655205e-05,4.428336817764311e-06,6.813893182588018e-06,5.5015592834974775e-06,Unknown
0.10981731000000039,1.8929378135106975e-05,9.719999049038162e-06,2.122195061020847e-05,4.428043756008492e-06,6.725291824610522e-06,5.500546105706768e-06,Unknown
0.1103365399999987,1.887953503497532e-05,9.728819115507246e-06,2.1227570057906717e-05,4.427281450916896e-06,6.632820971232148e-06,5.5020782035692434e-06,Unknown
0.11085577000000058,1.8810432595063545e-05,9.735645468236329e-06,2.1210424509875066e-05,4.427295132912255e-06,6.5718194937967495e-06,5.504975126481943e-06,Unknown
0.11137499999999889,1.876233236639072e-05,9.74032124730568e-06,2.1170334239806475e-05,4.424558487641535e-06,6.55624015774283e-06,5.510288714561032e-06,Unknown
0.11189423000000076,1.8726845173912508e-05,9.7349772681849e-06,2.113244254547324e-05,4.415451220185289e-06,6.5656890898283264e-06,5.521954276652943e-06,Unknown
0.11241345999999908,1.867793576310196e-05,9.71771853380054e-06,2.1113249544962062e-05,4.404618657087148e-06,6.575253460220847e-06,5.536477003532004e-06,Unknown
0.11293269000000095,1.8604380589577987e-05,9.701887716344365e-06,2.1104466978980787e-05,4.398239729386196e-06,6.580605371790928e-06,5.540854306549531e-06,Unknown
0.11345191999999926,1.8500698711603053e-05,9.69668074445478e-06,2.1091789433421237e-05,4.395548331012031e-06,6.586695301698584e-06,5.545164538469913e-06,Unknown
0.11397115000000113,1.8402380074034536e-05,9.696434551973303e-06,2.106970587822797e-05,4.3898696669167895e-06,6.59669387617073e-06,5.596468440041607e-06,Unknown
0.11449037999999945,1.8353798817103853e-05,9.696440664397375e-06,2.1042367197593058e-05,4.374629067086656e-06,6.610958114759681e-06,5.691491344052199e-06,Unknown
0.11500961999999859,1.834152744613656e-05,9.696280477034598e-06,2.1014574010800364e-05,4.3541039580579e-06,6.622450471387978e-06,5.743368074968726e-06,Unknown
0.11552885000000046,1.8335639111637504e-05,9.695212732224056e-06,2.097852475393979e-05,4.338948266370776e-06,6.626435293559085e-06,5.7435059032114085e-06,Unknown
0.11604807999999878,1.8322546322591145e-05,9.69464825329091e-06,2.0918530670836977e-05,4.330814551160356e-06,6.6256584119383e-06,5.764097771413239e-06,Unknown
0.11656731000000065,1.8297410261174945e-05,9.694713860275133e-06,2.082559143494716e-05,4.323217666702651e-06,6.6216014217218e-06,5.78304509420707e-06,Unknown
0.11708653999999896,1.827660055285648e-05,9.692413821936272e-06,2.070850424968193e-05,4.312579385565711e-06,6.615347899580321e-06,5.782994370599057e-06,Unknown
0.11760577000000083,1.827312375860202e-05,9.687949708002845e-06,2.0586195533450148e-05,4.300492702245212e-06,6.608921679437069e-06,5.807580301356765e-06,Unknown
0.11812499999999915,1.8272626656138023e-05,9.685003142489088e-06,2.0463566906557143e-05,4.2875549286492645e-06,6.606289885728898e-06,5.825508173926002e-06,Unknown
0.11864423000000102,1.8267418637697116e-05,9.683656744926024e-06,2.032910159006501e-05,4.277154494668011e-06,6.612489364717153e-06,5.82189423448441e-06,Unknown
0.11916345999999933,1.826225394969521e-05,9.680389245126867e-06,2.0175299418202132e-05,4.276117319186237e-06,6.607510404356517e-06,5.832767938426286e-06,Unknown
0.1196826900000012,1.8257024522635616e-05,9.675448499923494e-06,2.0012683219896806e-05,4.280760954258306e-06,6.570352052363216e-06,5.838861262698107e-06,Unknown
0.12020191999999952,1.825475954499459e-05,9.671901918531807e-06,1.9861017179837653e-05,4.282207750287904e-06,6.555438080257239e-06,5.835436794022452e-06,Unknown
0.12072114999999783,1.82508815757682e-05,9.673007676870514e-06,1.973315293770212e-05,4.278272927809122e-06,6.608946488231998e-06,5.842823157068812e-06,Unknown
0.1212403799999997,1.824790668916228e-05,9.680515939012247e-06,1.962814249493967e-05,4.264896236020884e-06,6.661844002010381e-06,5.838168270593672e-06,Unknown
0.12175961999999885,1.824576043435737e-05,9.686335665170648e-06,1.953065189478332e-05,4.239614733945083e-06,6.673713701467416e-06,5.814051974604797e-06,Unknown
0.12227885000000072,1.8221810210920883e-05,9.68559942518387e-06,1.942192588717148e-05,4.211904220305448e-06,6.674505331227868e-06,5.80166884059134e-06,Unknown
0.12279807999999903,1.82044387018946e-05,9.684570131753868e-06,1.929235246093001e-05,4.1913784504882135e-06,6.667187857812966e-06,5.811972344756917e-06,Unknown
0.1233173100000009,1.8221740335275456e-05,9.683488831573292e-06,1.9149275216556107e-05,4.181427398135005e-06,6.66546630837438e-06,5.825551990421437e-06,Unknown
0.12383653999999922,1.822984614085901e-05,9.6793295571621e-06,1.9019829904587843e-05,4.182470977574007e-06,6.67482800675448e-06,5.829335715029168e-06,Unknown
0.12435577000000109,1.822490293328995e-05,9.673378859992696e-06,1.8925447842805072e-05,4.188363767381378e-06,6.67453658437741e-06,5.829025741013688e-06,Unknown
0.1248749999999994,1.822511116102653e-05,9.6679860773104e-06,1.885792571362807e-05,4.192525961382758e-06,6.67674340448092e-06,5.8311224213997e-06,Unknown
0.12539423000000127,1.819895209619322e-05,9.664410001520737e-06,1.879314089529666e-05,4.195858479434738e-06,6.670174174625885e-06,5.836703136003692e-06,Unknown
0.1259134599999996,1.81552379532428e-05,9.66292675365465e-06,1.8711652735437703e-05,4.202134676009599e-06,6.631848665610271e-06,5.853008788221953e-06,Unknown
0.1264326899999979,1.812861844537541e-05,9.66302288451538e-06,1.8615530564192492e-05,4.216836168826995e-06,6.593235230773973e-06,5.903517794042553e-06,Unknown
0.12695191999999977,1.810752618764713e-05,9.663053508928622e-06,1.852972501881123e-05,4.243796882398615e-06,6.575526961824496e-06,6.0003662454945135e-06,Unknown
0.1274711499999981,1.8065181761395283e-05,9.663520652179096e-06,1.8470151905660865e-05,4.276421655347836e-06,6.566466420281478e-06,6.0873844113547415e-06,Unknown
0.12799037999999996,1.7973068294171617e-05,9.66549806136426e-06,1.842730738630485e-05,4.303301646354157e-06,6.554870700445987e-06,6.103595022031554e-06,Unknown
0.1285096199999991,1.7838816549136725e-05,9.664792569453782e-06,1.8385411558465585e-05,4.318758829692185e-06,6.531826892474058e-06,6.088642103850438e-06,Unknown
0.12902885000000097,1.772475524741822e-05,9.65890313883339e-06,1.834049059591486e-05,4.324718894823475e-06,6.502052049712407e-06,6.105233542669648e-06,Unknown
0.1295480799999993,1.7666329126788957e-05,9.652616305104044e-06,1.8308137565747437e-05,4.326025012866822e-06,6.484677465860345e-06,6.142318418778081e-06,Unknown
0.13006731000000116,1.7646549509392308e-05,9.6508422223772e-06,1.8301142598121357e-05,4.326494488048398e-06,6.483096345420933e-06,6.169743663540364e-06,Unknown
0.13058653999999947,1.7642318833925446e-05,9.65456106747042e-06,1.8307222506477296e-05,4.328817284335321e-06,6.485105315127188e-06,6.185726378504623e-06,Unknown
0.1311057699999978,1.7633964605889253e-05,9.659422317309024e-06,1.831330919289444e-05,4.332095791440292e-06,6.481590036781029e-06,6.197476353569553e-06,Unknown
0.13162499999999966,1.761120517768339e-05,9.657258673007494e-06,1.8320469908079456e-05,4.333240043093657e-06,6.466413232529289e-06,6.203318086802505e-06,Unknown
0.13214422999999798,1.7582513200351253e-05,9.642011180956328e-06,1.833377442582924e-05,4.332105720612243e-06,6.4540386842408425e-06,6.19038605285895e-06,Unknown
0.13266345999999984,1.753684708715491e-05,9.612832533204e-06,1.834942993458768e-05,4.331083154508629e-06,6.461886691112652e-06,6.156517459090354e-06,Unknown
0.13318268999999816,1.745846246447882e-05,9.573203494287e-06,1.835004147799864e-05,4.331932593547268e-06,6.479167548008524e-06,6.126411763674553e-06,Unknown
0.13370192000000003,1.7376297773491226e-05,9.527831363603963e-06,1.833359010882437e-05,4.334514674054434e-06,6.490600161386943e-06,6.118238604025134e-06,Unknown
0.13422114999999835,1.731123773359454e-05,9.480760700888284e-06,1.8320415744206667e-05,4.3333522803191895e-06,6.494516842298152e-06,6.12421186082076e-06,Unknown
0.13474038000000021,1.7246084821377306e-05,9.4369173635877e-06,1.831818658188969e-05,4.318840132189333e-06,6.489307568777792e-06,6.132674984911539e-06,Unknown
0.13525961999999936,1.7149486832150613e-05,9.40173251456352e-06,1.8319946250352696e-05,4.289902552976462e-06,6.4761276769078725e-06,6.1398903919216894e-06,Unknown
0.13577885000000123,1.6996267304443308e-05,9.379932262056375e-06,1.8321537779379465e-05,4.256659698246311e-06,6.465618505507396e-06,6.145126230235123e-06,Unknown
0.13629807999999954,1.6849296665463728e-05,9.373654659213272e-06,1.832203621749145e-05,4.233036495529168e-06,6.45765283698753e-06,6.147064398367879e-06,Unknown
0.13681730999999786,1.679237940632599e-05,9.376394984170276e-06,1.832154631574449e-05,4.224291047203755e-06,6.445678501876841e-06,6.14734237232889e-06,Unknown
0.13733653999999973,1.6786832845148754e-05,9.378252048948968e-06,1.832085741210966e-05,4.222085140808949e-06,6.423045023833491e-06,6.141786152987928e-06,Unknown
0.13785576999999805,1.678196712319155e-05,9.37806405423183e-06,1.8321845435330328e-05,4.217616516552888e-06,6.39610685854523e-06,6.128366513333229e-06,Unknown
0.13837499999999991,1.6772226443902703e-05,9.378369584731104e-06,1.8320255405643325e-05,4.190204964726159e-06,6.391928206202609e-06,6.121375901854592e-06,Unknown
0.13889422999999823,1.6739390655371675e-05,9.378180819872224e-06,1.831006378010584e-05,4.124579583756541e-06,6.407462856183533e-06,6.125179986996303e-06,Unknown
0.1394134600000001,1.6709343880454876e-05,9.378455329200133e-06,1.829485863074648e-05,4.046965110583361e-06,6.412862140078242e-06,6.128928693121e-06,Unknown
0.13993268999999842,1.6709205084188017e-05,9.372788127422973e-06,1.8278896151382566e-05,3.988449013021672e-06,6.4073799172442646e-06,6.129508787160941e-06,Unknown
0.14045192000000029,1.6712801964095628e-05,9.341808704603105e-06,1.8260731838731744e-05,3.951712452328849e-06,6.40509766141489e-06,6.12946987059583e-06,Unknown
0.1409711499999986,1.671205283343119e-05,9.281709962343965e-06,1.8236058623796237e-05,3.925766752329181e-06,6.40652388685607e-06,6.130157766212563e-06,Unknown
0.14149038000000047,1.6712980447104897e-05,9.214737454761138e-06,1.82048402930029e-05,3.900929220246662e-06,6.409007984429368e-06,6.130535511547184e-06,Unknown
0.14200961999999961,1.671311501403617e-05,9.163273119037186e-06,1.8180662273948988e-05,3.874864556755967e-06,6.412207673267443e-06,6.127010551607105e-06,Unknown
0.14252884999999793,1.6706470459957428e-05,9.132796172088027e-06,1.817523426480404e-05,3.847570647382213e-06,6.412751520036886e-06,6.121348666237565e-06,Unknown
0.1430480799999998,1.6666083555069235e-05,9.117578288799213e-06,1.817741974514273e-05,3.8270621509042656e-06,6.392083878067008e-06,6.120729512436403e-06,Unknown
0.14356730999999812,1.6586713096539934e-05,9.111532834907405e-06,1.817442575428908e-05,3.821710728147591e-06,6.343108080813019e-06,6.129353062779819e-06,Unknown
0.14408653999999999,1.6512104444719316e-05,9.111052377694194e-06,1.8173172566249624e-05,3.818428358352843e-06,6.304966291037674e-06,6.1463778159028615e-06,Unknown
0.1446057699999983,1.6469117822613134e-05,9.107318927765849e-06,1.817071232588297e-05,3.8108385052852703e-06,6.299645733335186e-06,6.16764046426319e-06,Unknown
0.14512500000000017,1.6450333611837117e-05,9.0815345750957e-06,1.813870077333005e-05,3.8093953700844367e-06,6.296425322271808e-06,6.186194813974584e-06,Unknown
0.1456442299999985,1.64501175826539e-05,9.029312520018147e-06,1.8057088396306147e-05,3.81699492686776e-06,6.284921839329306e-06,6.194436126075975e-06,Unknown
0.14616346000000036,1.6446842961325384e-05,8.979159296777446e-06,1.7933042963404995e-05,3.830055696068801e-06,6.278769001610219e-06,6.1883121839187685e-06,Unknown
0.14668268999999867,1.6408551995673887e-05,8.955632947426259e-06,1.778348999296411e-05,3.843049417154743e-06,6.275458606434933e-06,6.17198039532712e-06,Unknown
0.14720192000000054,1.6324187807948204e-05,8.949876776958857e-06,1.7614876738507116e-05,3.850318334203627e-06,6.273781691384405e-06,6.158491697321558e-06,Unknown
0.14772114999999886,1.6177357789596345e-05,8.943706628408877e-06,1.7416155067210934e-05,3.846373741381347e-06,6.270643183050984e-06,6.15568835333427e-06,Unknown
0.14824038000000073,1.5979649978577594e-05,8.9362419623909e-06,1.7160658958007774e-05,3.838789083353024e-06,6.251712898847629e-06,6.156763343941607e-06,Unknown
0.14875961999999987,1.580077191710585e-05,8.927445096395448e-06,1.6813042061851452e-05,3.838800884372064e-06,6.212241474989547e-06,6.156881922773261e-06,Unknown
0.1492788499999982,1.5658490718165082e-05,8.903264894185743e-06,1.6355726552942093e-05,3.835225496031169e-06,6.157674637840987e-06,6.158794183068037e-06,Unknown
0.14979808000000006,1.5502703397274598e-05,8.857810985895125e-06,1.584643085688838e-05,3.82732229497663e-06,6.105339154934828e-06,6.18474601211429e-06,Unknown
0.15031730999999837,1.529309827476641e-05,8.794679109181127e-06,1.5433136397860552e-05,3.833397767988999e-06,6.077408239916496e-06,6.2606365844907815e-06,Unknown
0.15083654000000024,1.5055134519150583e-05,8.732594255466596e-06,1.5228520896766088e-05,3.850742314400187e-06,6.070788296366769e-06,6.328477848678758e-06,Unknown
0.15135576999999856,1.4898936273193544e-05,8.702252203708546e-06,1.5185370437268907e-05,3.864228555288598e-06,6.079907229591189e-06,6.307773368403543e-06,Unknown
0.15187500000000043,1.4867103778254784e-05,8.700931541229308e-06,1.5186098767872063e-05,3.8688859572212265e-06,6.104334427428851e-06,6.224648511348868e-06,Unknown
0.15239422999999874,1.4878074339240048e-05,8.704134783778429e-06,1.5185365722059415e-05,3.87132299310204e-06,6.113309901164868e-06,6.137815544978826e-06,Unknown
0.1529134600000006,1.4872073068384548e-05,8.703891542788247e-06,1.5192234684665537e-05,3.8736094866418455e-06,6.1018180156791565e-06,6.0711076685001125e-06,Unknown
0.15343268999999893,1.4812612279413054e-05,8.702034217348897e-06,1.520413900343463e-05,3.86897351491119e-06,6.101447167085368e-06,6.0241131108204174e-06,Unknown
0.1539519200000008,1.4672602047474306e-05,8.70186120921373e-06,1.5211509380760212e-05,3.868535340954236e-06,6.092452241710724e-06,5.98418588793414e-06,Unknown
0.1544711499999991,1.451227780900195e-05,8.701823599682648e-06,1.5208331346476324e-05,3.87627327077658e-06,6.05891657754101e-06,6.030876863590595e-06,Unknown
0.15499038000000098,1.4402121970744814e-05,8.6925374582325e-06,1.5194778264558785e-05,3.876617548591573e-06,6.037215511418241e-06,6.196462545993877e-06,Unknown
0.15550962000000013,1.4330370176604974e-05,8.670906671360225e-06,1.5186310281128404e-05,3.8750071948649975e-06,6.034146918754701e-06,6.313954872097922e-06,Unknown
0.15602884999999844,1.4251549334497868e-05,8.64338467791165e-06,1.5191604804147211e-05,3.873450604321697e-06,6.033934266782238e-06,6.326445534487468e-06,Unknown
0.1565480800000003,1.4137516153591683e-05,8.615555404726048e-06,1.5212431950242746e-05,3.852524598124289e-06,6.033615979371272e-06,6.320521877639808e-06,Unknown
0.15706730999999863,1.401355004475328e-05,8.59046993796384e-06,1.5252121485978037e-05,3.8106265239248704e-06,6.029408070023119e-06,6.313817503688875e-06,Unknown
0.1575865400000005,1.3930323445653946e-05,8.573560827852527e-06,1.5289232167377627e-05,3.7657969340683552e-06,6.026086974267484e-06,6.340189987391981e-06,Unknown
0.1581057699999988,1.3890800185145325e-05,8.56851365777945e-06,1.5297442127005908e-05,3.7308510661241855e-06,6.026102432055311e-06,6.396194945671671e-06,Unknown
0.15862500000000068,1.3869493159760943e-05,8.569493432384728e-06,1.5276626337230237e-05,3.7094938177246288e-06,6.023632734577123e-06,6.401899732437354e-06,Unknown
0.159144229999999,1.3860361803815372e-05,8.57025308880445e-06,1.5239234385704184e-05,3.7003184257688105e-06,6.025276946074259e-06,6.406806780009392e-06,Unknown
0.15966346000000087,1.3858520372759162e-05,8.56950205562159e-06,1.519888081849178e-05,3.6980259837628327e-06,6.030931292809823e-06,6.50428435790267e-06,Unknown
0.16018268999999918,1.3857249860258133e-05,8.563093209669129e-06,1.5163573779520114e-05,3.695898400142678e-06,6.02988406558299e-06,6.624880221507162e-06,Unknown
0.16070192000000105,1.3865485775254856e-05,8.550377828532742e-06,1.5135269117628488e-05,3.6867613344972326e-06,6.037729267080525e-06,6.669369742889732e-06,Unknown
0.16122114999999937,1.3859577699922126e-05,8.539610300211705e-06,1.5119923938112356e-05,3.666169543747098e-06,6.074951847964147e-06,6.668383580566137e-06,Unknown
0.16174038000000124,1.3783707707395069e-05,8.537708981670506e-06,1.5119488639076091e-05,3.638771985390274e-06,6.120846852092455e-06,6.681646400995225e-06,Unknown
0.16225962000000038,1.3593497677329793e-05,8.534131155212857e-06,1.5114805807052318e-05,3.6123762883283145e-06,6.147914826969732e-06,6.692913369980456e-06,Unknown
0.1627788499999987,1.3282326528713796e-05,8.503500028721131e-06,1.5056121000468872e-05,3.592963691588184e-06,6.159791458381278e-06,6.690502122718366e-06,Unknown
0.16329808000000057,1.295985983571254e-05,8.4394187853859e-06,1.4896697851209712e-05,3.584978007461185e-06,6.186519078637701e-06,6.694609742157938e-06,Unknown
0.16381730999999888,1.276139668921226e-05,8.363400940026406e-06,1.4674965966653454e-05,3.5786172125610413e-06,6.258036846016012e-06,6.699318619238028e-06,Unknown
0.16433654000000075,1.2664304600450014e-05,8.292793583746012e-06,1.4501934944121626e-05,3.569151561670173e-06,6.342662683260741e-06,6.69709082798264e-06,Unknown
0.16485576999999907,1.2578521586839754e-05,8.226704138089157e-06,1.442803738071783e-05,3.575524125027931e-06,6.385566581355437e-06,6.697203709484165e-06,Unknown
0.16537500000000094,1.2418445135343769e-05,8.163293949172313e-06,1.4408687971030567e-05,3.592379123835109e-06,6.395305301408411e-06,6.710718362109033e-06,Unknown
0.16589422999999925,1.2097310777565067e-05,8.11724716342969e-06,1.4397820088115227e-05,3.597584592815456e-06,6.39967725993515e-06,6.734019557452926e-06,Unknown
0.16641346000000112,1.169644810890808e-05,8.103330926946097e-06,1.4369611011501048e-05,3.60799747066992e-06,6.408530082810811e-06,6.746890419171263e-06,Unknown
0.16693268999999944,1.1409865553726212e-05,8.104477883955824e-06,1.4304940646909776e-05,3.630352073995901e-06,6.430689393397045e-06,6.739470253233065e-06,Unknown
0.1674519200000013,1.126494630454486e-05,8.088370257835689e-06,1.4216881974028256e-05,3.636250027967864e-06,6.451259485479345e-06,6.72641547961459e-06,Unknown
0.16797114999999962,1.117410875188846e-05,8.050274893380205e-06,1.4125842730858392e-05,3.628316549815198e-06,6.454136051119219e-06,6.747835717964643e-06,Unknown
0.16849037999999794,1.1080117175535046e-05,8.01070980203341e-06,1.4022564660689368e-05,3.626472048145694e-06,6.452343656951383e-06,6.8201947424294975e-06,Unknown
0.16900962000000064,1.0969787287113256e-05,7.98166246878128e-06,1.3880869514302423e-05,3.628352446650416e-06,6.452636278223731e-06,6.886708161763531e-06,Unknown
0.16952884999999895,1.08960632647411e-05,7.960250403878522e-06,1.369565763138342e-05,3.629727449216097e-06,6.452597449659306e-06,6.891255082421624e-06,Unknown
0.17004808000000082,1.0883214546540389e-05,7.941678445788512e-06,1.3504694014394817e-05,3.629418982589607e-06,6.453726141333445e-06,6.855998399354104e-06,Unknown
0.17056730999999914,1.0882162367474612e-05,7.921885869256954e-06,1.3355127630461592e-05,3.639341184126894e-06,6.453420045245263e-06,6.834162675781145e-06,Unknown
0.171086540000001,1.0878463033236871e-05,7.900565994947564e-06,1.3258892896410747e-05,3.678668263803523e-06,6.458494916643028e-06,6.844497175084457e-06,Unknown
0.17160576999999932,1.0880934591636516e-05,7.881781012832601e-06,1.3198165765715788e-05,3.732469573473821e-06,6.483527936602508e-06,6.863391893339273e-06,Unknown
0.1721250000000012,1.087501476462495e-05,7.867112802694946e-06,1.3153701023407347e-05,3.7711503225740986e-06,6.526385052593171e-06,6.864085706132759e-06,Unknown
0.1726442299999995,1.087582495503572e-05,7.845421615620173e-06,1.3117706832171142e-05,3.789405431948208e-06,6.571147533840146e-06,6.89863854764855e-06,Unknown
0.17316345999999783,1.0889169078091002e-05,7.805577332143093e-06,1.3092733805726162e-05,3.800555981159642e-06,6.606465585460958e-06,7.078905847557071e-06,Unknown
0.1736826899999997,1.0889304221463754e-05,7.765784113615732e-06,1.3080387697246005e-05,3.816308042628093e-06,6.6285631493052245e-06,7.395971348961742e-06,Unknown
0.174201919999998,1.0881583874961303e-05,7.7514471054606e-06,1.3074445723582325e-05,3.831157769976075e-06,6.636882862256662e-06,7.695177350635759e-06,Unknown
0.17472114999999988,1.086966556195e-05,7.751637844649524e-06,1.3062736802830477e-05,3.8291194978183145e-06,6.6332381789266e-06,7.889916035014139e-06,Unknown
0.1752403799999982,1.0854011904836956e-05,7.728671399174105e-06,1.3023831891600211e-05,3.8098586287255697e-06,6.623374813681853e-06,8.02862763382381e-06,Unknown
0.1757596200000009,1.0852756525926455e-05,7.657151001186564e-06,1.2952651527307708e-05,3.789466408788007e-06,6.618231332173351e-06,8.182391307050338e-06,Unknown
0.1762788499999992,1.0853591205816022e-05,7.550728692660563e-06,1.2886714015933243e-05,3.7749966338192382e-06,6.61992743295943e-06,8.339016431077066e-06,Unknown
0.17679808000000108,1.084619974531368e-05,7.4497251695387216e-06,1.2853750032328309e-05,3.772171727814706e-06,6.619846888254475e-06,8.374592535273092e-06,Unknown
0.1773173099999994,1.0826273235364718e-05,7.372465349467388e-06,1.28395207144202e-05,3.793906514591857e-06,6.622797852693079e-06,8.46090097955523e-06,Unknown
0.17783654000000126,1.0751283670658982e-05,7.3048090840073085e-06,1.2824302767067054e-05,3.829984676664732e-06,6.62665598955532e-06,9.2924273310849e-06,Unknown
0.17835576999999958,1.0640150172010564e-05,7.233990496725555e-06,1.279707672357046e-05,3.852743284760129e-06,6.615285501737941e-06,1.087314813656183e-05,Unknown
0.1788749999999979,1.0575822155953688e-05,7.164499667288541e-06,1.2760884144916647e-05,3.856779623594643e-06,6.607776587278749e-06,1.22324383235925e-05,Unknown
0.17939422999999977,1.0559796545802052e-05,7.110596607077807e-06,1.2728436327453215e-05,3.856863805973163e-06,6.625491873066609e-06,1.286494986231115e-05,Unknown
0.17991345999999808,1.054947750617399e-05,7.081711595039632e-06,1.2702979107032512e-05,3.8608251838376105e-06,6.649489202728401e-06,1.3032285974069535e-05,Unknown
0.18043268999999995,1.0530246504802807e-05,7.07271186909682e-06,1.2680856028874264e-05,3.865353427825059e-06,6.6638202783325965e-06,1.3071619402788563e-05,Unknown
0.18095191999999827,1.0494893815300036e-05,7.069977713378411e-06,1.266098560202539e-05,3.867349581468462e-06,6.670122434616562e-06,1.3096817827009854e-05,Unknown
0.18147115000000014,1.0469612683645687e-05,7.064446270985093e-06,1.2645853975051796e-05,3.867725981366338e-06,6.671665546264786e-06,1.310573699509026e-05,Unknown
0.18199037999999845,1.0472038725962354e-05,7.054089484168267e-06,1.2638892638264955e-05,3.867757879188829e-06,6.664000692178474e-06,1.311107450468797e-05,Unknown
0.18250962000000115,1.046955913749385e-05,7.041706325911184e-06,1.2638726702434792e-05,3.868684577606334e-06,6.644567466534975e-06,1.316016990814369e-05,Unknown
0.18302884999999947,1.045108693793422e-05,7.032188188081927e-06,1.2630636218639596e-05,3.87343772250732e-06,6.622071066785939e-06,1.3199063575740924e-05,Unknown
0.18354807999999778,1.0432434043269143e-05,7.026425683037828e-06,1.2585086539932747e-05,3.882817203963324e-06,6.601908468930157e-06,1.3200251439378228e-05,Unknown
0.18406730999999965,1.0414893689368906e-05,7.02243486007185e-06,1.247483508317157e-05,3.891430975703824e-06,6.587429398060805e-06,1.320023129106703e-05,Unknown
0.18458653999999797,1.0385331963546422e-05,7.01805343369075e-06,1.2298630091051024e-05,3.894387516157272e-06,6.58049243575744e-06,1.3219503218008426e-05,Unknown
0.18510576999999984,1.0325833444815484e-05,7.013989682785057e-06,1.2079846818934206e-05,3.894243584003428e-06,6.577916587089063e-06,1.340784616293318e-05,Unknown
0.18562499999999815,1.0241560420005142e-05,7.012985263106737e-06,1.1836505318779049e-05,3.8939155827977205e-06,6.568598029130759e-06,1.3790043483468869e-05,Unknown
0.18614423000000002,1.01560923207529e-05,7.017299968205745e-06,1.1564854216198184e-05,3.890559717232357e-06,6.55104023850011e-06,1.4103190831814605e-05,Unknown
0.18666345999999834,1.004540484045758e-05,7.034441422775811e-06,1.125771719231341e-05,3.880363268323006e-06,6.538062174274877e-06,1.4219582175507117e-05,Unknown
0.1871826900000002,9.866629183317802e-06,7.0680871422610304e-06,1.0928020613959036e-05,3.867991269755383e-06,6.528998315139964e-06,1.4235684981053312e-05,Unknown
0.18770191999999852,9.67012738993184e-06,7.106629755428838e-06,1.0601487720834995e-05,3.861057004070259e-06,6.524566801336534e-06,1.4231514132881496e-05,Unknown
0.1882211500000004,9.527855246888795e-06,7.134034592908075e-06,1.0293984242186287e-05,3.855470780383638e-06,6.5246017740709645e-06,1.422688148236503e-05,Unknown
0.1887403799999987,9.43660027709143e-06,7.14535102758373e-06,1.0013543351496648e-05,3.856609206281982e-06,6.521590008192211e-06,1.4226050087292031e-05,Unknown
0.18925961999999785,9.384977118399373e-06,7.146211640823405e-06,9.772600542408836e-06,3.879927954827301e-06,6.528541475690726e-06,1.4220645248200171e-05,Unknown
0.18977884999999972,9.335791385387682e-06,7.138774736061995e-06,9.581510813616603e-06,3.911818415012214e-06,6.542029303967315e-06,1.42071263688845e-05,Unknown
0.19029807999999804,9.273835114562007e-06,7.114398310523728e-06,9.43367600771432e-06,3.928863244153952e-06,6.528977219656415e-06,1.4197209787076569e-05,Unknown
0.1908173099999999,9.251818002634926e-06,7.061958203401435e-06,9.30860301048056e-06,3.931954882587434e-06,6.497793818255792e-06,1.41941617296697e-05,Unknown
0.19133653999999822,9.251629558274397e-06,6.98574430062008e-06,9.186891423711803e-06,3.9307633532266415e-06,6.472440953641856e-06,1.4188802395717446e-05,Unknown
0.1918557700000001,9.24111255354625e-06,6.907702533076306e-06,9.060172693670909e-06,3.930427590346982e-06,6.438959397593272e-06,1.4191782169033222e-05,Unknown
0.1923749999999984,9.22198841184954e-06,6.834566455068681e-06,8.940981582250586e-06,3.9355139110393566e-06,6.368370968548204e-06,1.4222414003750614e-05,Unknown
0.19289423000000028,9.161575509824012e-06,6.7549932921836185e-06,8.859457451123962e-06,3.946712229427713e-06,6.21339746663948e-06,1.4263035065866728e-05,Unknown
0.1934134599999986,9.101397295574242e-06,6.6656966593020336e-06,8.828678288978418e-06,3.957085671516093e-06,5.993974289506933e-06,1.4270171336352257e-05,Unknown
0.19393269000000046,9.096504124242489e-06,6.562203884619543e-06,8.82734032705931e-06,3.961169000354534e-06,5.8444716628798e-06,1.4228308071879816e-05,Unknown
0.19445191999999878,9.09051938387616e-06,6.452787688653923e-06,8.831159105781637e-06,3.960856157680096e-06,5.808590192482442e-06,1.4173833802180408e-05,Unknown
0.19497115000000065,9.063585319006098e-06,6.360198797815637e-06,8.83331179632082e-06,3.958120362715772e-06,5.807847991474949e-06,1.4148724817276935e-05,Unknown
0.19549037999999896,9.051819025692463e-06,6.282191481983376e-06,8.833495278200056e-06,3.952413211926312e-06,5.798982125608748e-06,1.4148042309693452e-05,Unknown
0.1960096199999981,9.04796170881792e-06,6.203318418535957e-06,8.824987313763278e-06,3.94533742372157e-06,5.76272675662253e-06,1.414583259457258e-05,Unknown
0.19652884999999998,9.03459678371065e-06,6.116700125525393e-06,8.788835177219427e-06,3.94121911069768e-06,5.712602719043006e-06,1.413746463283521e-05,Unknown
0.1970480799999983,8.986011325203148e-06,6.029562499603844e-06,8.704647548448917e-06,3.94126815287135e-06,5.69538657831268e-06,1.4133202320210471e-05,Unknown
0.19756731000000016,8.882998391740103e-06,5.96268471727168e-06,8.561562836426816e-06,3.942857534160501e-06,5.713420945294145e-06,1.4134916187360454e-05,Unknown
0.19808653999999848,8.769525690340898e-06,5.9266986276879065e-06,8.348835196951775e-06,3.942389961177817e-06,5.738044894172058e-06,1.413567155183998e-05,Unknown
0.19860577000000035,8.675265040468148e-06,5.911392397048087e-06,8.059429056145617e-06,3.938069016688022e-06,5.752851055438005e-06,1.4134745662036066e-05,Unknown
0.19912499999999866,8.566368510934144e-06,5.899579626710123e-06,7.720150900518368e-06,3.932447337329727e-06,5.752679076268371e-06,1.4135123375830203e-05,Unknown
0.19964423000000053,8.415829869659267e-06,5.8725666575128666e-06,7.394670902792167e-06,3.929702905018011e-06,5.745319687174019e-06,1.4135803092820716e-05,Unknown
0.20016345999999885,8.203782522345181e-06,5.830394039238769e-06,7.139040219826992e-06,3.932262429030617e-06,5.741750920075971e-06,1.4135993648988586e-05,Unknown
0.20068269000000072,7.945491697120663e-06,5.805015147438945e-06,6.960462984377387e-06,3.94396481616168e-06,5.7402134244498026e-06,1.4136024155141862e-05,Unknown
0.20120191999999903,7.70643382512138e-06,5.8035161251358e-06,6.837271295434525e-06,3.971235374209178e-06,5.744543736782593e-06,1.4136717040909389e-05,Unknown
0.2017211500000009,7.478877435132783e-06,5.801362161715725e-06,6.768653534559883e-06,4.006737357124617e-06,5.76453051533408e-06,1.4139193086089028e-05,Unknown
0.20224037999999922,7.237897771264463e-06,5.80717821430674e-06,6.758169369480622e-06,4.0316326056249495e-06,5.78466089004903e-06,1.4141851121961123e-05,Unknown
0.20275961999999836,7.058821331258658e-06,5.833871476647454e-06,6.772576204648082e-06,4.040082928099383e-06,5.788452698813428e-06,1.4143232109695806e-05,Unknown
0.20327885000000023,6.953159787065159e-06,5.856439138179655e-06,6.779706847845351e-06,4.037910140898377e-06,5.787901082266422e-06,1.4144513377756585e-05,Unknown
0.20379807999999855,6.852509203097146e-06,5.861770964358509e-06,6.777252887168836e-06,4.03644149566528e-06,5.789402441129318e-06,1.41496371409881e-05,Unknown
0.20431731000000042,6.734786828956036e-06,5.862095144244772e-06,6.763389285957292e-06,4.046727364278126e-06,5.781437756645394e-06,1.4173582073853313e-05,Unknown
0.20483653999999873,6.588125432983268e-06,5.856404420751526e-06,6.7348581025586576e-06,4.060607875386746e-06,5.754290043837761e-06,1.4239457795130824e-05,Unknown
0.2053557700000006,6.467345549716277e-06,5.821742732613319e-06,6.712532914884581e-06,4.065633894337046e-06,5.714299103523915e-06,1.4355000870956848e-05,Unknown
0.20587499999999892,6.441048075808015e-06,5.748517205822331e-06,6.718294124356548e-06,4.063966932975456e-06,5.6856862146365976e-06,1.4504097632222525e-05,Unknown
0.2063942300000008,6.448824046943987e-06,5.672028295394548e-06,6.727165279520256e-06,4.059359052943273e-06,5.677485293150543e-06,1.466411787128509e-05,Unknown
0.2069134599999991,6.448689121369767e-06,5.629346955334296e-06,6.711609577193659e-06,4.0558419827633565e-06,5.676662609508774e-06,1.4821238952628176e-05,Unknown
0.20743269000000097,6.439041427439572e-06,5.613608800570915e-06,6.687881757217624e-06,4.05786280710822e-06,5.674250832341928e-06,1.49741347518556e-05,Unknown
0.2079519199999993,6.372254322922716e-06,5.59950596306897e-06,6.674159332469863e-06,4.059834004093135e-06,5.659301235939323e-06,1.513247485745452e-05,Unknown
0.20847115000000116,6.28677706130041e-06,5.55620023081157e-06,6.670955158531225e-06,4.054932463338072e-06,5.627648729000026e-06,1.5305449083537715e-05,Unknown
0.20899037999999948,6.261632779522832e-06,5.457060333076523e-06,6.678489548562056e-06,4.049709959877881e-06,5.60151470520201e-06,1.54759395691538e-05,Unknown
0.20950961999999862,6.269551813441151e-06,5.321155010718276e-06,6.699193040657526e-06,4.0498158910576456e-06,5.592803936675638e-06,1.5589120966101843e-05,Unknown
0.2100288500000005,6.276499239201813e-06,5.198891512449616e-06,6.7224601691441416e-06,4.053916754270452e-06,5.5894471949374e-06,1.561345511583683e-05,Unknown
0.2105480799999988,6.283668422321637e-06,5.109398051661072e-06,6.7264528090549065e-06,4.069490546197646e-06,5.580011417707384e-06,1.5617809649422433e-05,Unknown
0.21106731000000067,6.281046174532853e-06,5.029437943710712e-06,6.713998329096351e-06,4.093897374701793e-06,5.554758236243092e-06,1.5694684463178734e-05,Unknown
0.211586539999999,6.2784982725768826e-06,4.917298532730197e-06,6.707694885437956e-06,4.1115921567770745e-06,5.5246623412801e-06,1.58357805273167e-05,Unknown
0.21210577000000086,6.275804551370708e-06,4.738197605461091e-06,6.707881944693764e-06,4.121144969203732e-06,5.509527803474503e-06,1.599579098871435e-05,Unknown
0.21262499999999918,6.252547077137807e-06,4.529316245188852e-06,6.707887550529087e-06,4.130432630632001e-06,5.506048423331856e-06,1.61884036866621e-05,Unknown
0.21314423000000104,6.2215696024297374e-06,4.38388948669068e-06,6.707842238178004e-06,4.146161211782976e-06,5.506959178930353e-06,1.645795537574222e-05,Unknown
0.21366345999999936,6.18499225114761e-06,4.327370621745069e-06,6.710698363877237e-06,4.164337549943868e-06,5.5127887493707714e-06,1.6781073032593103e-05,Unknown
0.21418269000000123,6.137547308479122e-06,4.32897309147205e-06,6.733205389139873e-06,4.160063633788223e-06,5.523877147799912e-06,1.7040214293157535e-05,Unknown
0.21470191999999955,6.1121941742616975e-06,4.358124338924417e-06,6.77112546596358e-06,4.115919228950274e-06,5.534616558874625e-06,1.716672447496802e-05,Unknown
0.21522114999999786,6.105280053029089e-06,4.372977572401941e-06,6.800357874537573e-06,4.054585800325596e-06,5.539424617619062e-06,1.7202350614562088e-05,Unknown
0.21574037999999973,6.109459861901869e-06,4.3612132849927e-06,6.811823527940745e-06,4.0132028226452776e-06,5.538461109865757e-06,1.720528730012395e-05,Unknown
0.21625961999999888,6.141094282795877e-06,4.341622818865411e-06,6.807607865588845e-06,3.998977826351467e-06,5.528622283231536e-06,1.720428967385458e-05,Unknown
0.21677885000000074,6.128457042853195e-06,4.320626689375889e-06,6.799789403520293e-06,3.99621458023798e-06,5.502391390224097e-06,1.7214616345261952e-05,Unknown
0.21729807999999906,6.063651278530596e-06,4.3006235402714895e-06,6.79635634223615e-06,3.994686907642963e-06,5.4665470891084e-06,1.723539023782395e-05,Unknown
0.21781731000000093,6.041784161866448e-06,4.287753690366497e-06,6.795235614982396e-06,3.988820722632163e-06,5.441014034368297e-06,1.724546335941466e-05,Unknown
0.21833653999999925,6.044430616182081e-06,4.282264142375007e-06,6.795286917060274e-06,3.972479989690999e-06,5.437255243396083e-06,1.7243029161098128e-05,Unknown
0.21885577000000112,6.046394438385829e-06,4.281413551110387e-06,6.79504858138276e-06,3.948233525161749e-06,5.445862301852671e-06,1.725174595165281e-05,Unknown
0.21937499999999943,6.052930517901865e-06,4.282399231719518e-06,6.79455905525394e-06,3.925856720566111e-06,5.448453619150834e-06,1.7276857092733275e-05,Unknown
0.2198942300000013,6.004711332728021e-06,4.282932387233132e-06,6.797752121468147e-06,3.910971892434122e-06,5.441853630467044e-06,1.7303140149493366e-05,Unknown
0.22041345999999962,5.9279684093821845e-06,4.282808856091124e-06,6.805119909336547e-06,3.9027035217889285e-06,5.437671833555595e-06,1.7322397082710955e-05,Unknown
0.22093268999999793,5.89826560567738e-06,4.283353564577353e-06,6.809014001659535e-06,3.897662284480831e-06,5.450933207841745e-06,1.7334856831828427e-05,Unknown
0.2214519199999998,5.896770468190588e-06,4.2844226389538855e-06,6.80796572025069e-06,3.89323762578797e-06,5.480381223992584e-06,1.7338946378246916e-05,Unknown
0.22197114999999812,5.894023741626164e-06,4.283116926651219e-06,6.807759913137164e-06,3.893105632186777e-06,5.501200791419383e-06,1.73393208567936e-05,Unknown
0.22249038,5.881260503498353e-06,4.2839483475555536e-06,6.8071452115141695e-06,3.900940835524744e-06,5.505131262175028e-06,1.7361133461867848e-05,Unknown
0.22300961999999913,5.843399799920723e-06,4.292812393538513e-06,6.80382332054148e-06,3.902985137424375e-06,5.502674507301874e-06,1.7429831646517862e-05,Unknown
0.223528850000001,5.793852191286708e-06,4.2817016729618815e-06,6.799339553144999e-06,3.893198530079622e-06,5.4957997768590905e-06,1.7514693859104462e-05,Unknown
0.22404807999999932,5.758544460763336e-06,4.228236516560611e-06,6.79667708887521e-06,3.888575430563763e-06,5.48383442080441e-06,1.7552547079693055e-05,Unknown
0.22456731000000119,5.742190959712027e-06,4.172209100188866e-06,6.794564382603064e-06,3.889992055650206e-06,5.473264169347771e-06,1.755249725151078e-05,Unknown
0.2250865399999995,5.74280722105952e-06,4.143466478681252e-06,6.796179094891233e-06,3.889318050792143e-06,5.4698944056007664e-06,1.7557689228774732e-05,Unknown
0.22560576999999782,5.735591933089246e-06,4.136997668512796e-06,6.819593311316537e-06,3.890043683287177e-06,5.469685810686613e-06,1.7560495549830057e-05,Unknown
0.2261249999999997,5.700642419275447e-06,4.153715703895094e-06,6.862265657684429e-06,3.8910831155170735e-06,5.464518024393826e-06,1.7563985509798308e-05,Unknown
0.226644229999998,5.681874747532159e-06,4.17007001974201e-06,6.895023907209182e-06,3.8911502716694e-06,5.439168029743532e-06,1.7588400881225668e-05,Unknown
0.22716345999999987,5.678480663410333e-06,4.156658741159646e-06,6.90775183381641e-06,3.891430525109033e-06,5.4095419008572376e-06,1.761698227647914e-05,Unknown
0.2276826899999982,5.661481487713174e-06,4.123974250083191e-06,6.910060775055921e-06,3.896074589433215e-06,5.402221335069131e-06,1.7625637143879816e-05,Unknown
0.22820192000000006,5.67803525459032e-06,4.094780124807254e-06,6.908680536091232e-06,3.908549761499307e-06,5.400621390491499e-06,1.7627838235488984e-05,Unknown
0.22872114999999837,5.713635905503141e-06,4.068993388067025e-06,6.907518744481784e-06,3.9206036297737575e-06,5.398387954984976e-06,1.7685362131916448e-05,Unknown
0.22924038000000024,5.716397859984515e-06,4.0438880582937816e-06,6.9047520376502485e-06,3.92916224528122e-06,5.394534061847392e-06,1.7864899904763555e-05,Unknown
0.2297596199999994,5.723531416250291e-06,4.026453364158595e-06,6.903230868190992e-06,3.939739072253241e-06,5.38321947983009e-06,1.813950047524112e-05,Unknown
0.23027885000000126,5.7266873191614496e-06,4.013153070640305e-06,6.910806097632327e-06,3.9538358270561166e-06,5.381044931336716e-06,1.838101457282171e-05,Unknown
0.23079807999999957,5.709225507226713e-06,3.99911670405881e-06,6.9162604291258205e-06,3.9685501863597865e-06,5.387846110254993e-06,1.8492641515507144e-05,Unknown
0.2313173099999979,5.718143735881021e-06,3.98927113566572e-06,6.910637141989777e-06,3.980244104992782e-06,5.389366228381541e-06,1.850264242209123e-05,Unknown
0.23183653999999976,5.728844703368449e-06,3.980352714535461e-06,6.899010839263207e-06,3.98690447952484e-06,5.389818136612239e-06,1.8524390902371905e-05,Unknown
0.23235576999999807,5.728513036159046e-06,3.964320481451852e-06,6.875626356650762e-06,3.989206414918632e-06,5.393596997762003e-06,1.864972434692753e-05,Unknown
0.23287499999999994,5.739488360642482e-06,3.939725771420491e-06,6.839739492232023e-06,3.9889638893850426e-06,5.398744615806181e-06,1.8883929739678646e-05,Unknown
0.23339422999999826,5.7140026531638924e-06,3.898419842708265e-06,6.802848552904658e-06,3.98453176341392e-06,5.399697507245672e-06,1.916670531556288e-05,Unknown
0.23391346000000013,5.677044469939303e-06,3.829308599273996e-06,6.771801135648599e-06,3.977277689718982e-06,5.384651233411948e-06,1.942112237287709e-05,Unknown
0.23443268999999844,5.691321630885128e-06,3.743617352573581e-06,6.750110573978943e-06,3.973266506330916e-06,5.360161841228011e-06,1.9590354815729488e-05,Unknown
0.2349519200000003,5.707591708084353e-06,3.673413605239804e-06,6.732081697299691e-06,3.9727151855268e-06,5.347256901372745e-06,1.9667058925473225e-05,Unknown
0.23547114999999863,5.70802256432934e-06,3.637227306678597e-06,6.710022882157951e-06,3.972718989463055e-06,5.352307208814875e-06,1.9686442383752048e-05,Unknown
0.2359903800000005,5.698620554190807e-06,3.628961654722465e-06,6.700496444771364e-06,3.9727308335433865e-06,5.365641961300651e-06,1.96864280867802e-05,Unknown
0.23650961999999964,5.651619559306919e-06,3.637319665240172e-06,6.71937717258583e-06,3.973227983161892e-06,5.370803127478412e-06,1.968624189570332e-05,Unknown
0.23702884999999796,5.6220097495433685e-06,3.65058252443786e-06,6.74201899419293e-06,3.976968776421849e-06,5.367448923035016e-06,1.968714583885948e-05,Unknown
0.23754807999999983,5.650419931692541e-06,3.6580856375445393e-06,6.7402932779450005e-06,3.987510844752247e-06,5.36980949178638e-06,1.968601532335624e-05,Unknown
0.23806730999999814,5.691003596047642e-06,3.658518215300505e-06,6.719515838510044e-06,4.0044039342757645e-06,5.376740175236824e-06,1.968930397849273e-05,Unknown
0.23858654,5.734291098072808e-06,3.658130418057408e-06,6.686454527641568e-06,4.02321235129147e-06,5.37541187670909e-06,1.971590121036218e-05,Unknown
0.23910576999999833,5.773535729630327e-06,3.660015964297293e-06,6.637238331487243e-06,4.040730703563639e-06,5.361634221224597e-06,1.981332000507369e-05,Unknown
0.2396250000000002,5.778770391792542e-06,3.662446566146289e-06,6.567582543590628e-06,4.055946002561367e-06,5.34354623008235e-06,1.9972186496333636e-05,Unknown
0.24014422999999852,5.776149443688167e-06,3.664454527091638e-06,6.478502154874456e-06,4.065053557840809e-06,5.329393104125241e-06,2.0068324495792143e-05,Unknown
0.24066346000000038,5.783224603875474e-06,3.666237318477574e-06,6.391645943890093e-06,4.063263383024709e-06,5.323656362411111e-06,2.0075150247759848e-05,Unknown
0.2411826899999987,5.781980152184825e-06,3.6673784278992e-06,6.32435502956709e-06,4.056507551294892e-06,5.335091004424233e-06,2.0087246947846404e-05,Unknown
0.24170192000000057,5.775586596466767e-06,3.667413089262541e-06,6.271396218576517e-06,4.057667182524551e-06,5.3548319667435536e-06,2.0114341302958017e-05,Unknown
0.24222114999999889,5.740620311135117e-06,3.6675781683259152e-06,6.222323629681232e-06,4.0645936982825454e-06,5.358802682290875e-06,2.0120490164194044e-05,Unknown
0.24274038000000075,5.672248087949295e-06,3.6686584535909153e-06,6.168166155363129e-06,4.066666359199449e-06,5.354333803502241e-06,2.011411331491268e-05,Unknown
0.2432596199999999,5.642012073840316e-06,3.6675012016138186e-06,6.116053095856445e-06,4.066210665053456e-06,5.357201773518141e-06,2.0109297310971493e-05,Unknown
0.24377884999999822,5.65044453340773e-06,3.662208315098746e-06,6.079620673143035e-06,4.06592744785688e-06,5.353940970387252e-06,2.0115304460586696e-05,Unknown
0.24429808000000008,5.651857231132983e-06,3.658132929307796e-06,6.054748083028808e-06,4.062817540797564e-06,5.344984026846216e-06,2.014800738365286e-05,Unknown
0.2448173099999984,5.648257134988754e-06,3.657444204975555e-06,6.0387429534964966e-06,4.062521016134742e-06,5.3453484388977084e-06,2.0196491102236468e-05,Unknown
0.24533654000000027,5.6161594631977616e-06,3.6598429834104254e-06,6.035590987256812e-06,4.066980010245515e-06,5.3232331781742525e-06,2.0216539054486823e-05,Unknown
0.24585576999999859,5.576929557019673e-06,3.6661854581179977e-06,6.034506561224116e-06,4.068225013830247e-06,5.250899437344872e-06,2.0212259299223124e-05,Unknown
0.24637500000000045,5.575657574243864e-06,3.667311079488684e-06,6.025166268096527e-06,4.069673376980385e-06,5.181930784165028e-06,2.0229212870170485e-05,Unknown
0.24689422999999877,5.579724469661511e-06,3.664923871483178e-06,6.0194374974163865e-06,4.078550412533745e-06,5.1599629470727e-06,2.0253737982310177e-05,Unknown
0.24741346000000064,5.579729211919599e-06,3.66749608295937e-06,6.022095784390101e-06,4.088257479148376e-06,5.167714017310744e-06,2.025744954008413e-05,Unknown
0.24793268999999896,5.560728617787791e-06,3.667645047739373e-06,6.020377378433837e-06,4.093465464358756e-06,5.195553037380146e-06,2.0252135517730716e-05,Unknown
0.24845192000000083,5.497552120066125e-06,3.666901837713545e-06,6.017657808739381e-06,4.095560640021619e-06,5.2180631856474845e-06,2.0253100332563547e-05,Unknown
0.24897114999999914,5.458345660270867e-06,3.6658701408486025e-06,6.024666390115793e-06,4.093258174780222e-06,5.217146017318933e-06,2.029402324507999e-05,Unknown
0.249490380000001,5.468790051471509e-06,3.653809928292764e-06,6.035355163742693e-06,4.087463478837778e-06,5.216548019888931e-06,2.037881320501506e-05,Unknown
0.25000962000000015,5.475234242699984e-06,3.637195889993303e-06,6.041272358479788e-06,4.082016178201268e-06,5.213943710393189e-06,2.0445597357893685e-05,Unknown
0.25052884999999847,5.477829956860841e-06,3.630087428146646e-06,6.042686136568576e-06,4.077505101632081e-06,5.206258398769853e-06,2.0464245345240203e-05,Unknown
0.25104808000000034,5.478344018420463e-06,3.6303190799031337e-06,6.040688798747555e-06,4.070647406451808e-06,5.206392319023544e-06,2.0460005015958383e-05,Unknown
0.25156730999999866,5.464158803617958e-06,3.630361772526885e-06,6.032467130811224e-06,4.054704257860746e-06,5.204738312149176e-06,2.0447727961304768e-05,Unknown
0.2520865400000005,5.456992651425852e-06,3.630208756704371e-06,6.017927647225555e-06,4.0226427784708286e-06,5.199159898217441e-06,2.0422733407650588e-05,Unknown
0.25260576999999884,5.457662386360784e-06,3.63004784764531e-06,6.005871042353227e-06,3.977920502619663e-06,5.214797476019339e-06,2.0398053505812184e-05,Unknown
0.2531250000000007,5.44676315406776e-06,3.6267324769065218e-06,5.997985768948796e-06,3.936141691350455e-06,5.253330716965423e-06,2.039564705928317e-05,Unknown
0.253644229999999,5.436183651070521e-06,3.622297063851789e-06,5.981641302692315e-06,3.909332141388864e-06,5.270065299753366e-06,2.042125693437866e-05,Unknown
0.2541634600000009,5.435192082380421e-06,3.620297033127432e-06,5.947541576156011e-06,3.896137914202097e-06,5.259581623168928e-06,2.0486230106164517e-05,Unknown
0.2546826899999992,5.435159719937731e-06,3.618833213826437e-06,5.891792882142088e-06,3.888982323505431e-06,5.2586357280158445e-06,2.0571822856163477e-05,Unknown
0.2552019200000011,5.432757409099009e-06,3.614661384100284e-06,5.83092170911778e-06,3.8827935661216975e-06,5.261169463804572e-06,2.0607020413327493e-05,Unknown
0.2557211499999994,5.41176111433801e-06,3.6039363287423862e-06,5.794880967490238e-06,3.876939902855448e-06,5.255178435205848e-06,2.0601941175102333e-05,Unknown
0.25624038000000127,5.393198898130443e-06,3.588177806290114e-06,5.77843130198805e-06,3.872999405534227e-06,5.2546912164497975e-06,2.063417832905268e-05,Unknown
0.2567596200000004,5.407913905980083e-06,3.575841782003111e-06,5.75604598627874e-06,3.871355672577469e-06,5.260848580030792e-06,2.068396546253593e-05,Unknown
0.2572788499999987,5.389459910697599e-06,3.5732902805487707e-06,5.715867442168789e-06,3.872374616878454e-06,5.2619211292291e-06,2.07025297770235e-05,Unknown
0.2577980800000006,5.339884430288775e-06,3.5776373345374568e-06,5.663753165600362e-06,3.87535423085732e-06,5.252029723944604e-06,2.07043055960873e-05,Unknown
0.2583173099999989,5.340043695793075e-06,3.579801866794481e-06,5.617988718509001e-06,3.876181375907053e-06,5.2493170078677135e-06,2.0709073345173967e-05,Unknown
0.2588365400000008,5.3451708044406685e-06,3.577857960041608e-06,5.589568762120344e-06,3.873706257318651e-06,5.270155003848315e-06,2.0736208034178567e-05,Unknown
0.2593557699999991,5.343025564471514e-06,3.5780256379745872e-06,5.574992824803508e-06,3.873616715320016e-06,5.291125536362852e-06,2.0774187675361503e-05,Unknown
0.25987500000000097,5.378147774612141e-06,3.5851184343389093e-06,5.567474377446328e-06,3.8827505532887815e-06,5.292563161191802e-06,2.077790264463588e-05,Unknown
0.2603942299999993,5.399977110878256e-06,3.59917704494538e-06,5.563865486367306e-06,3.8941553588734375e-06,5.283468698230957e-06,2.0797103170682315e-05,Unknown
0.26091346000000115,5.401101181642216e-06,3.6093221680776855e-06,5.561257284585683e-06,3.8969145133188015e-06,5.273396990844071e-06,2.091959732978345e-05,Unknown
0.26143268999999947,5.37889253242994e-06,3.6003904063366096e-06,5.559637222835773e-06,3.895874769676461e-06,5.269177651441354e-06,2.1095920091775803e-05,Unknown
0.2619519199999978,5.304378362324532e-06,3.583775468926609e-06,5.566303684246313e-06,3.895687521187735e-06,5.269703407384557e-06,2.123353276247882e-05,Unknown
0.26247114999999965,5.262385538748196e-06,3.57910123197673e-06,5.578982490906254e-06,3.895859937528312e-06,5.2702207544249815e-06,2.1330144994528625e-05,Unknown
0.26299037999999797,5.270919631577679e-06,3.5795190230880743e-06,5.58367436361999e-06,3.896330824394344e-06,5.268402075274915e-06,2.1424779536687964e-05,Unknown
0.26350962000000067,5.265018295620443e-06,3.5789079414777864e-06,5.578280725432958e-06,3.899953402653688e-06,5.257604918637092e-06,2.152862943684824e-05,Unknown
0.264028849999999,5.26287808646898e-06,3.5813939358492677e-06,5.568440885172074e-06,3.906532131607817e-06,5.2401820347853055e-06,2.160441886973698e-05,Unknown
0.26454808000000085,5.257791080233669e-06,3.586002386916167e-06,5.556044147210899e-06,3.908827845690151e-06,5.228724540103703e-06,2.1626404361218015e-05,Unknown
0.26506730999999917,5.241075352328705e-06,3.595195626208915e-06,5.548970947689902e-06,3.907487480849541e-06,5.226843611255706e-06,2.162609388051098e-05,Unknown
0.26558654000000104,5.25064818262637e-06,3.603089115888942e-06,5.56164457249288e-06,3.907808718011046e-06,5.228334035614458e-06,2.163882923476761e-05,Unknown
0.26610576999999935,5.2655145731055454e-06,3.588661663438017e-06,5.605461535183017e-06,3.9118508158496365e-06,5.23624726190582e-06,2.166349067230722e-05,Unknown
0.2666250000000012,5.262528510637703e-06,3.5583543561020058e-06,5.665958817004302e-06,3.919162528555981e-06,5.244894818300937e-06,2.1682319000492583e-05,Unknown
0.26714422999999954,5.277312485020841e-06,3.540718808345569e-06,5.7063997122384685e-06,3.928553039997338e-06,5.24148220083796e-06,2.1688627829832105e-05,Unknown
0.26766345999999785,5.291103487902856e-06,3.5366429284436937e-06,5.717739431541194e-06,3.943070285974368e-06,5.249313233021911e-06,2.1688909261884684e-05,Unknown
0.2681826899999997,5.289332928341034e-06,3.5383498285126718e-06,5.720332207653726e-06,3.956397282289427e-06,5.28233952847201e-06,2.1687156100947057e-05,Unknown
0.26870191999999804,5.324736025216103e-06,3.542431072457396e-06,5.729954008307088e-06,3.952608850824604e-06,5.31447313482091e-06,2.1684890300102495e-05,Unknown
0.2692211499999999,5.357927619475348e-06,3.542948798673068e-06,5.757716931899626e-06,3.935336865454496e-06,5.3361008429597975e-06,2.169568231985425e-05,Unknown
0.2697403799999982,5.3577048967055415e-06,3.5433211326534347e-06,5.7975176146074375e-06,3.920776321534485e-06,5.361228489769542e-06,2.1743453058599007e-05,Unknown
0.2702596200000009,5.379344571813768e-06,3.538427856266526e-06,5.821078210232183e-06,3.91401756937459e-06,5.407199708988447e-06,2.183920425357012e-05,Stood
0.27077884999999924,5.373304861034591e-06,3.526405845794563e-06,5.825624465566873e-06,3.916419561343783e-06,5.470459794771282e-06,2.1955104895319792e-05,Stood
0.2712980800000011,5.317329593348269e-06,3.523277069005558e-06,5.828129934151315e-06,3.933538842153594e-06,5.518359648543699e-06,2.204193032008429e-05,Stood
0.2718173099999994,5.296062248224754e-06,3.5219565123352448e-06,5.833429181945177e-06,3.958262776880069e-06,5.538081565060969e-06,2.2086203641676315e-05,Stood
0.2723365400000013,5.299299030112714e-06,3.516619440601412e-06,5.843118622141669e-06,3.97314513891988e-06,5.539079836984984e-06,2.2112779358157665e-05,Stood
0.2728557699999996,5.325422337114176e-06,3.528122460891969e-06,5.846674616450271e-06,3.977215327348552e-06,5.531656895073921e-06,2.2148554105187568e-05,Stood
0.2733749999999979,5.387156808735668e-06,3.536953497652277e-06,5.839344732449418e-06,3.980159064226555e-06,5.528316547379359e-06,2.220814105363857e-05,Stood
0.2738942299999998,5.394370886509497e-06,3.522498827482449e-06,5.834318639395046e-06,3.992512846864499e-06,5.529779033043382e-06,2.2268836312910316e-05,Stood
0.2744134599999981,5.365700256613434e-06,3.515702226442353e-06,5.834706854874277e-06,4.0220208919798285e-06,5.5344408890672615e-06,2.2293984055526283e-05,Stood
0.27493269,5.383105151088043e-06,3.513905900525262e-06,5.838926036386358e-06,4.05504669268296e-06,5.540491653573788e-06,2.228668493347708e-05,Stood
0.2754519199999983,5.401425341146034e-06,3.499111530818299e-06,5.862519464777954e-06,4.06942346607081e-06,5.541024074426978e-06,2.227188275915128e-05,Stood
0.27597115000000016,5.401321054692866e-06,3.489356562223856e-06,5.932121957280503e-06,4.065170082419582e-06,5.544386660904794e-06,2.226555067689678e-05,Stood
0.2764903799999985,5.395860758513879e-06,3.48557813756526e-06,6.041813100636814e-06,4.057597796174799e-06,5.548332394383133e-06,2.227556932719449e-05,Stood
0.2770096200000012,5.35108572208016e-06,3.477905149334507e-06,6.149637756447698e-06,4.053971580345213e-06,5.534330100148438e-06,2.2308699490520828e-05,Stood
0.2775288499999995,5.304150675647516e-06,3.471862485705804e-06,6.231968342348961e-06,4.05186375979567e-06,5.5188267867183085e-06,2.240032464691308e-05,Stood
0.2780480799999978,5.3114413038466536e-06,3.474858416437237e-06,6.300853955786537e-06,4.048349584457907e-06,5.520384283004831e-06,2.260138553760169e-05,Stood
0.2785673099999997,5.338194432411943e-06,3.4832180874318547e-06,6.371442605696574e-06,4.0416004497799e-06,5.521430240605368e-06,2.2851225827834628e-05,Stood
0.279086539999998,5.347922224611466e-06,3.48156130696828e-06,6.429115043831151e-06,4.03206061168006e-06,5.519119698364226e-06,2.2987220934466423e-05,Stood
0.27960576999999986,5.347668409995967e-06,3.4686448326354277e-06,6.457949668032843e-06,4.024183735447774e-06,5.522762189586831e-06,2.298051525206617e-05,Stood
0.2801249999999982,5.345124673908632e-06,3.460786318240838e-06,6.468306871923764e-06,4.0220449338698605e-06,5.523274707615479e-06,2.295827997542756e-05,Stood
0.28064423000000005,5.352770425405551e-06,3.461385243108808e-06,6.475341181461356e-06,4.027568452985285e-06,5.522365632563853e-06,2.2982222141546085e-05,Stood
0.28116345999999837,5.364405028455127e-06,3.461722421035736e-06,6.478794898982862e-06,4.03649109892849e-06,5.5287360888154815e-06,2.300977993358537e-05,Stood
0.28168269000000024,5.364279056635715e-06,3.46216101398577e-06,6.44079436219464e-06,4.041106636203203e-06,5.535158604020708e-06,2.3018760536709787e-05,Stood
0.28220191999999855,5.3808469038240925e-06,3.4671436838982183e-06,6.336767230547504e-06,4.042161407456776e-06,5.535649210172727e-06,2.3024821964616043e-05,Stood
0.2827211500000004,5.403357463256545e-06,3.4757182352600647e-06,6.22313371181185e-06,4.043577919309092e-06,5.534916677982045e-06,2.3027531436104377e-05,Stood
0.28324037999999874,5.400600701336479e-06,3.488539896080516e-06,6.160423864281797e-06,4.050125822665802e-06,5.53502801379286e-06,2.301944060193439e-05,Stood
0.2837596199999979,5.411584630299288e-06,3.5071226839971874e-06,6.140019117265512e-06,4.066142628070279e-06,5.533763672585363e-06,2.301441767990557e-05,Stood
0.28427884999999975,5.4168489070511e-06,3.5225093337817543e-06,6.133549630621455e-06,4.083017241558417e-06,5.527923613632222e-06,2.303078037739022e-05,Stood
0.28479807999999807,5.398742577298274e-06,3.522969365850925e-06,6.128941995610392e-06,4.090281031207445e-06,5.518914959308779e-06,2.3055364271654072e-05,Stood
0.28531730999999994,5.420902053758623e-06,3.514186632518498e-06,6.125822130914992e-06,4.0916624515530486e-06,5.519868466639513e-06,2.305836122594033e-05,Stood
0.28583653999999825,5.428355046501514e-06,3.5104414136986604e-06,6.125855578327819e-06,4.092268299905862e-06,5.52106355690489e-06,2.3048329878472517e-05,Stood
0.2863557700000001,5.390109308664074e-06,3.511642965030888e-06,6.124832867418003e-06,4.089406290812924e-06,5.48660478823483e-06,2.305715359007551e-05,Stood
0.28687499999999844,5.393600387894059e-06,3.5118103976741907e-06,6.124563170157419e-06,4.08881462161762e-06,5.430149411614111e-06,2.308057045246781e-05,Stood
0.2873942300000003,5.406395066941576e-06,3.512021240922196e-06,6.126814278391743e-06,4.1076796766043724e-06,5.389101272286541e-06,2.309438630579116e-05,Stood
0.2879134599999986,5.399576878102614e-06,3.50933808707578e-06,6.126453634432091e-06,4.144681735707181e-06,5.349824037027327e-06,2.3097170627953335e-05,Stood
0.2884326900000005,5.4145276216390285e-06,3.500786589905168e-06,6.118960210592068e-06,4.178563633933339e-06,5.292628739602382e-06,2.30958689807565e-05,Stood
0.2889519199999988,5.415770916189975e-06,3.495119623909684e-06,6.093228136123845e-06,4.203480265010767e-06,5.219197953003776e-06,2.31067171658565e-05,Stood
0.2894711500000007,5.406957582742876e-06,3.4968896541279654e-06,6.059983917104922e-06,4.222334479457681e-06,5.1601330846970565e-06,2.3173485895925227e-05,Stood
0.289990379999999,5.409844783782846e-06,3.499490187219981e-06,6.044206303290382e-06,4.230204124613903e-06,5.155298078435656e-06,2.3281986202005323e-05,Stood
0.29050961999999814,5.391430691143316e-06,3.500774521990512e-06,6.039674069631793e-06,4.231588284160635e-06,5.1906858007109294e-06,2.3338373402382235e-05,Stood
0.29102885,5.376927762711221e-06,3.507166959359515e-06,6.035096747708413e-06,4.237017340232171e-06,5.231129037527662e-06,2.3334158185478704e-05,Stood
0.2915480799999983,5.376932356448635e-06,3.527752264322109e-06,6.032163227482793e-06,4.242955520815356e-06,5.245863733202341e-06,2.3345652736233195e-05,Stood
0.2920673100000002,5.360198118994447e-06,3.5628394612883117e-06,6.02656861773206e-06,4.240032516834819e-06,5.225484892247029e-06,2.3374553518248784e-05,Stood
0.2925865399999985,5.354874722576723e-06,3.59814630948436e-06,6.016306542687473e-06,4.233551602256229e-06,5.205328827085165e-06,2.338032841860571e-05,Stood
0.2931057700000004,5.365742214691278e-06,3.620266890298784e-06,6.012879410040082e-06,4.235409731407906e-06,5.20548845723071e-06,2.3367512074268285e-05,Stood
0.2936249999999987,5.356949977182405e-06,3.630305558418638e-06,6.017902916692092e-06,4.252433341860075e-06,5.206648901384777e-06,2.334608362566495e-05,Stood
0.29414423000000056,5.354165336958375e-06,3.636798686640001e-06,6.012055029636612e-06,4.282240181675854e-06,5.205240515847541e-06,2.3328282665150605e-05,Stood
0.2946634599999989,5.36651281755588e-06,3.6399653762336088e-06,5.992900805470048e-06,4.305816034630395e-06,5.207624074007017e-06,2.3342732187832016e-05,Stood
0.29518269000000075,5.365798109678875e-06,3.633083084546432e-06,5.9767935876176325e-06,4.313573821110424e-06,5.206905866384096e-06,2.3369755014689636e-05,Stood
0.29570191999999906,5.381376610459584e-06,3.621935281128816e-06,5.963425175877421e-06,4.304848117043237e-06,5.20710351881086e-06,2.3373706092223896e-05,Stood
0.29622115000000093,5.408498798637917e-06,3.623582886413992e-06,5.949718126283119e-06,4.271278071574095e-06,5.197509486089454e-06,2.3373490170750317e-05,Stood
0.29674037999999925,5.409182623378933e-06,3.633083773491956e-06,5.936489440535552e-06,4.22914243430515e-06,5.1656865847850335e-06,2.337813737417346e-05,Stood
0.2972596199999984,5.411608731569956e-06,3.624246688304192e-06,5.922790704362656e-06,4.202899185284712e-06,5.126764484028393e-06,2.3377823005825223e-05,Stood
0.29777885000000026,5.400885666529009e-06,3.5964734764609423e-06,5.925829154876878e-06,4.187106912646384e-06,5.0821724165015e-06,2.340233992529976e-05,Stood
0.2982980799999986,5.37367890740012e-06,3.5740438080054546e-06,5.950220640936558e-06,4.169175204645477e-06,5.032780716618904e-06,2.346030346665893e-05,Stood
0.29881731000000045,5.382186063885089e-06,3.566767368674067e-06,5.964528273843425e-06,4.145658643804968e-06,4.99754821899055e-06,2.3490529188814046e-05,Stood
0.29933653999999876,5.386681436388795e-06,3.5664377748737177e-06,5.963195038999957e-06,4.122591945124088e-06,4.992108379200322e-06,2.3453653007492352e-05,Stood
0.29985577000000063,5.3817376031514645e-06,3.565783027721966e-06,5.981341731447049e-06,4.111924782299077e-06,5.014177718382491e-06,2.3391257858390825e-05,Stood
0.30037499999999895,5.41090192881657e-06,3.563488128798273e-06,6.018932391399535e-06,4.111828481312279e-06,5.026901189035677e-06,2.3358719281629814e-05,Stood
0.3008942300000008,5.424162184854763e-06,3.5622827977867627e-06,6.038376174928179e-06,4.111953410797249e-06,5.012141240677651e-06,2.336434544576231e-05,Stood
0.30141345999999913,5.415563626835412e-06,3.5628200853714057e-06,6.035696508764001e-06,4.113013940762483e-06,5.011860258836688e-06,2.339953013338459e-05,Stood
0.301932690000001,5.421015494298234e-06,3.5608319848044613e-06,6.029801480015801e-06,4.109051175876744e-06,5.043700681344202e-06,2.347452358603949e-05,Stood
0.3024519199999993,5.402450525030004e-06,3.5621455356847896e-06,6.024688523651143e-06,4.082937742914181e-06,5.063639678150409e-06,2.348947273939484e-05,Stood
0.3029711500000012,5.373360783514886e-06,3.570085458067317e-06,6.034645957728531e-06,4.04564263729794e-06,5.057714447533586e-06,2.3175497508204373e-05,Stood
0.3034903799999995,5.3784093737610685e-06,3.5727512025918204e-06,6.0821325609941525e-06,4.033858414355709e-06,5.058992272231476e-06,2.249407525177616e-05,Stood
0.30400961999999865,5.383635915505732e-06,3.574469310632773e-06,6.155129978837051e-06,4.058983232390085e-06,5.058824052568848e-06,2.1864612576159756e-05,Stood
0.3045288500000005,5.3776852255331465e-06,3.588909170730204e-06,6.224413445488147e-06,4.098223856812883e-06,5.027184912836885e-06,2.1593072609204315e-05,Stood
0.30504807999999883,5.377754185265426e-06,3.603057925407577e-06,6.286488953111672e-06,4.134004942865618e-06,4.998507092605111e-06,2.1528283259181225e-05,Stood
0.3055673100000007,5.376091602664503e-06,3.602717570489462e-06,6.361580838071739e-06,4.1711015607182e-06,5.0432156848097965e-06,2.1500198363702265e-05,Stood
0.306086539999999,5.378638261060927e-06,3.5982999268571536e-06,6.479648935841796e-06,4.2202764478392486e-06,5.170070954177501e-06,2.148732396929364e-05,Stood
0.3066057700000009,5.380065790649851e-06,3.6004987427995317e-06,6.654889282792545e-06,4.281879145703041e-06,5.308617631958571e-06,2.148639557003159e-05,Stood
0.3071249999999992,5.3748354757236285e-06,3.618315669144591e-06,6.844595964905792e-06,4.344838536167064e-06,5.403865266277671e-06,2.148340480757029e-05,Stood
0.3076442300000011,5.403636956134618e-06,3.663930742334948e-06,6.984146630205232e-06,4.400704031164891e-06,5.452906516389385e-06,2.1453320948657238e-05,Stood
0.3081634599999994,5.455640181971141e-06,3.734105408861733e-06,7.063205744656432e-06,4.452105235862525e-06,5.466892800112546e-06,2.1432478362975863e-05,Stood
0.30868269000000126,5.475012914562158e-06,3.813810817742206e-06,7.113492707038335e-06,4.50935592728804e-06,5.464087454076601e-06,2.144761029226552e-05,Stood
0.3092019199999996,5.47120205840175e-06,3.892769008305071e-06,7.164026829653973e-06,4.579736716419092e-06,5.459858522957768e-06,2.146415951047425e-05,Stood
0.3097211499999979,5.458623754729611e-06,3.967879708978083e-06,7.229762333336845e-06,4.654522637060282e-06,5.462813437245893e-06,2.1450033741964863e-05,Stood
0.31024037999999976,5.471669002513547e-06,4.035060951642485e-06,7.296692530085728e-06,4.718233843786793e-06,5.48830877779337e-06,2.131780250959222e-05,Stood
0.3107596199999989,5.561430842558131e-06,4.088520377501787e-06,7.338999348736654e-06,4.768022565528467e-06,5.560364202129626e-06,2.106926819551629e-05,Stood
0.3112788500000008,5.641678479892738e-06,4.119214105524665e-06,7.35643976319229e-06,4.808953607081224e-06,5.661904632385496e-06,2.0900422049735407e-05,Stood
0.3117980799999991,5.656996167056161e-06,4.1084375091931726e-06,7.364634439049767e-06,4.840488501400763e-06,5.733530101381161e-06,2.0906147866818e-05,Stood
0.31231731000000096,5.658448328250014e-06,4.051462918923607e-06,7.373249073731638e-06,4.856613324912737e-06,5.766548291459335e-06,2.097879183548297e-05,Stood
0.3128365399999993,5.622006289342605e-06,3.984249078847731e-06,7.383194597319627e-06,4.857955516218319e-06,5.787413456136551e-06,2.102109275822176e-05,Stood
0.31335577000000114,5.574036841104529e-06,3.952783736859159e-06,7.385725395826108e-06,4.857221831106926e-06,5.828664696378224e-06,2.102412833066093e-05,Stood
0.31387499999999946,5.571780087783633e-06,3.954648849728135e-06,7.379474816046741e-06,4.855880780587418e-06,5.926528754038154e-06,2.101749984479572e-05,Stood
0.3143942299999978,5.561429422516277e-06,3.958835058349152e-06,7.3886029731207746e-06,4.842317465140313e-06,6.014691887256485e-06,2.1026881211016038e-05,Stood
0.31491345999999965,5.569414436533333e-06,3.958657463212656e-06,7.4267076164782035e-06,4.822069639425613e-06,6.0170871884735415e-06,2.1049423608757106e-05,Stood
0.31543268999999796,5.627828755173964e-06,3.959778335778975e-06,7.465796187446336e-06,4.808564852254762e-06,6.018212397581669e-06,2.1066132088664684e-05,Stood
0.31595191999999983,5.65964494780943e-06,3.981638901153931e-06,7.479782913487756e-06,4.802889436867711e-06,6.091674706449767e-06,2.1073190655551605e-05,Stood
0.31647114999999815,5.677442806129996e-06,4.044609541886683e-06,7.476229823922572e-06,4.801515951822924e-06,6.176585272412243e-06,2.107931602317045e-05,Stood
0.31699038,5.706420295271994e-06,4.123971805523204e-06,7.474532923141272e-06,4.799526864326534e-06,6.2221456273044166e-06,2.1077877139950935e-05,Stood
0.31750961999999916,5.710965450403188e-06,4.196855018107321e-06,7.48811965598228e-06,4.791499132214316e-06,6.225504103490522e-06,2.105713680489289e-05,Stood
0.31802885000000103,5.718957880420811e-06,4.263085971838453e-06,7.516520047376086e-06,4.778757250005306e-06,6.208680070036361e-06,2.102938512394772e-05,Stood
0.31854807999999935,5.743659003813215e-06,4.307028031818191e-06,7.553900398394457e-06,4.76893314189018e-06,6.2065274799759285e-06,2.101409535992989e-05,Stood
0.3190673100000012,5.763882925948604e-06,4.327706030061767e-06,7.604706358281312e-06,4.766014599373876e-06,6.216067514879429e-06,2.1013314601242217e-05,Stood
0.31958653999999953,5.793912945017533e-06,4.334948636398438e-06,7.675557959147989e-06,4.767370869613819e-06,6.222320158260531e-06,2.1044690396009758e-05,Stood
0.32010576999999785,5.817358603246403e-06,4.326005674462425e-06,7.760741957671748e-06,4.771830520942033e-06,6.230684268375947e-06,2.1189613206361143e-05,Stood
0.3206249999999997,5.811086588235521e-06,4.314645483513812e-06,7.837328333833096e-06,4.783535635531475e-06,6.241236966384391e-06,2.148851008437637e-05,Stood
0.32114422999999803,5.80513400371748e-06,4.310744788247658e-06,7.883402883306186e-06,4.807223415941549e-06,6.245027165591756e-06,2.1761738138058757e-05,Stood
0.3216634599999999,5.811125769437137e-06,4.306302527149302e-06,7.89914277713992e-06,4.837388822510813e-06,6.226253235934307e-06,2.1828334849179497e-05,Stood
0.3221826899999982,5.805601305667791e-06,4.300277748613687e-06,7.89554722183651e-06,4.8619855346121774e-06,6.185105768042039e-06,2.184221568975974e-05,Stood
0.3227019200000001,5.796278359948066e-06,4.2942777978580685e-06,7.881897900772861e-06,4.879749022429655e-06,6.145192138144591e-06,2.19873514833513e-05,Stood
0.3232211499999984,5.7842262200200944e-06,4.286315836469938e-06,7.867334313178858e-06,4.900920031348996e-06,6.115525595721307e-06,2.21528471812772e-05,Stood
0.32374038000000027,5.7579890139127445e-06,4.274627515694549e-06,7.858357237916486e-06,4.936281227578963e-06,6.094073130026693e-06,2.222683577940984e-05,Stood
0.3242596199999994,5.753166597956635e-06,4.260486938607311e-06,7.855980749061282e-06,4.985379557209227e-06,6.084656568142082e-06,2.2245705545504685e-05,Stood
0.3247788500000013,5.756180196800426e-06,4.255859788013064e-06,7.858286258359503e-06,5.034692735258595e-06,6.083727453651283e-06,2.2249819233303066e-05,Stood
0.3252980799999996,5.744841609845507e-06,4.269844088296657e-06,7.864482442835187e-06,5.075243656781143e-06,6.085279451937537e-06,2.2250161068585748e-05,Stood
0.3258173099999979,5.749147679619355e-06,4.287398909183037e-06,7.876555504968953e-06,5.108924048558999e-06,6.088251392438931e-06,2.2286568403920783e-05,Stood
0.3263365399999998,5.727160182925422e-06,4.300766656804871e-06,7.895322111860178e-06,5.1385768145136825e-06,6.08308213003856e-06,2.240984086500153e-05,Stood
0.3268557699999981,5.689673089318665e-06,4.31517242241775e-06,7.909753387081922e-06,5.164286609089606e-06,6.072090409809318e-06,2.253097420516943e-05,Stood
0.32737499999999997,5.6940938496953085e-06,4.318655028966379e-06,7.9116653936965e-06,5.181076065563674e-06,6.084469691251137e-06,2.2560220296774716e-05,Stood
0.3278942299999983,5.68137212338027e-06,4.320898167799808e-06,7.917030055344334e-06,5.185261818765428e-06,6.121071188153781e-06,2.255924623074161e-05,Stood
0.32841346000000016,5.657947833685372e-06,4.339988981490395e-06,7.940904597420577e-06,5.181346722910505e-06,6.1421595294156e-06,2.255866733788913e-05,Stood
0.3289326899999985,5.664445254497597e-06,4.3512218668181215e-06,7.97877917760375e-06,5.17160765092089e-06,6.13800553708917e-06,2.258488117113825e-05,Stood
0.32945192000000034,5.651281805177476e-06,4.350787493562505e-06,8.020807504085611e-06,5.15551644578911e-06,6.140166738501489e-06,2.2647178914503504e-05,Stood
0.32997114999999866,5.651500000575889e-06,4.358215800466693e-06,8.053607563545219e-06,5.141270906339086e-06,6.165625706316548e-06,2.264114174138573e-05,Stood
0.3304903800000005,5.70339871349657e-06,4.365895379809594e-06,8.065565401077058e-06,5.13576527938199e-06,6.197685018136429e-06,2.2569764197471176e-05,Stood
0.33100961999999967,5.744216483742297e-06,4.367698042639408e-06,8.06174659866227e-06,5.134993484945146e-06,6.218253677236345e-06,2.253069220126516e-05,Stood
0.331528849999998,5.761258848895012e-06,4.367704541487274e-06,8.056042830811984e-06,5.134932208497382e-06,6.230642307250546e-06,2.25151119143701e-05,Stood
0.33204807999999986,5.770468903278782e-06,4.367108624169038e-06,8.053689988500533e-06,5.134707948947469e-06,6.246996497420467e-06,2.249541451579221e-05,Stood
0.3325673099999982,5.761973218499609e-06,4.364847660142999e-06,8.052660474554184e-06,5.132915243998446e-06,6.279613798835525e-06,2.2509677769933592e-05,Stood
0.33308654000000004,5.759296400277553e-06,4.361996130463302e-06,8.054641416179382e-06,5.130513682977233e-06,6.326841873044474e-06,2.2623596437866e-05,Stood
0.33360576999999836,5.770531854826824e-06,4.361341166508154e-06,8.066064922050629e-06,5.131598684402467e-06,6.359793002893598e-06,2.2807503248112684e-05,Stood
0.3341250000000002,5.768175915535976e-06,4.362736201977377e-06,8.079458432220838e-06,5.136235702209418e-06,6.36495695536433e-06,2.2891309968635813e-05,Stood
0.33464422999999854,5.760663500516745e-06,4.364809520415074e-06,8.07443720155922e-06,5.13999438491932e-06,6.367186160341343e-06,2.284659015559783e-05,Stood
0.3351634600000004,5.757241701009271e-06,4.365368571949294e-06,8.053770888998785e-06,5.13683567124086e-06,6.377107247944327e-06,2.2834742515126988e-05,Stood
0.33568268999999873,5.749058818794359e-06,4.364397506525096e-06,8.03877189169534e-06,5.1224795957841664e-06,6.378903715354845e-06,2.2871025083777376e-05,Stood
0.3362019200000006,5.758979455772136e-06,4.362113383408916e-06,8.038203761107396e-06,5.10360502164498e-06,6.38107425545465e-06,2.2846382095232862e-05,Stood
0.3367211499999989,5.77469746226357e-06,4.363841833791917e-06,8.04828508411281e-06,5.089655980939224e-06,6.4022302862691314e-06,2.2756027660648332e-05,Stood
0.3372403800000008,5.774472196559185e-06,4.383111103255868e-06,8.061426014226574e-06,5.082128981692941e-06,6.422260673339864e-06,2.2644827551162903e-05,Stood
0.3377596199999999,5.806436653097692e-06,4.414315683306853e-06,8.067088459920198e-06,5.075271431912174e-06,6.423325714707693e-06,2.250751517450177e-05,Stood
0.33827884999999824,5.84260415401556e-06,4.442405953545991e-06,8.067083072701578e-06,5.061925378282157e-06,6.431105144221241e-06,2.2311923834897816e-05,Stood
0.3387980800000001,5.839466089067973e-06,4.465249885333518e-06,8.06636778281061e-06,5.0433152873538604e-06,6.462779787687968e-06,2.2073588885474005e-05,Stood
0.33931730999999843,5.844910380425959e-06,4.466021001904174e-06,8.050539916237194e-06,5.0289373609183474e-06,6.501186943427119e-06,2.187552730162924e-05,Stood
0.3398365400000003,5.846833604976435e-06,4.442103839139328e-06,8.019583858628154e-06,5.026105688179915e-06,6.536555058045172e-06,2.177157343156217e-05,Stood
0.3403557699999986,5.843127462008253e-06,4.427125350700277e-06,7.9948050021457e-06,5.034242940254815e-06,6.571601380346237e-06,2.1749735599259024e-05,Stood
0.3408750000000005,5.846437598393532e-06,4.4304337277446775e-06,7.982683621059354e-06,5.051012928260014e-06,6.593273517071598e-06,2.17867011704761e-05,Stood
0.3413942299999988,5.806474400594148e-06,4.436484750581659e-06,7.976998970906262e-06,5.077214471685605e-06,6.593107510862948e-06,2.1842418565522667e-05,Stood
0.34191346000000067,5.7653744977755984e-06,4.4442038200775285e-06,7.97527584497815e-06,5.112364759777255e-06,6.618122796777422e-06,2.1858032702128115e-05,Stood
0.342432689999999,5.770562942651943e-06,4.456090096640281e-06,7.981109160772886e-06,5.149959475445499e-06,6.684283243472146e-06,2.18412368069388e-05,Stood
0.34295192000000085,5.7724745199018205e-06,4.4707037344325006e-06,7.99646302129384e-06,5.181306545673542e-06,6.7168735212150735e-06,2.1846620564536983e-05,Stood
0.34347114999999917,5.771544115049838e-06,4.482157940124111e-06,8.014563346895955e-06,5.202718006364778e-06,6.711291930104241e-06,2.1858437950814014e-05,Stood
0.34399038000000104,5.7895694007987245e-06,4.482690998582111e-06,8.028486744507169e-06,5.21669173460082e-06,6.719534311503105e-06,2.1851144308838572e-05,Stood
0.3445096200000002,5.802615807468269e-06,4.4792843159345285e-06,8.038864928889905e-06,5.229470637449163e-06,6.724429297577974e-06,2.1837351633381637e-05,Stood
0.3450288499999985,5.8134613729361e-06,4.480595634582239e-06,8.049836430382667e-06,5.243678649043082e-06,6.722516875561535e-06,2.18184127888092e-05,Stood
0.34554808000000037,5.829212310195456e-06,4.484245476575284e-06,8.073551285881029e-06,5.253664197014125e-06,6.744935063825018e-06,2.17968678260379e-05,Stood
0.3460673099999987,5.829722877320875e-06,4.485972106887271e-06,8.1342759162763e-06,5.255572757535143e-06,6.779127517028665e-06,2.1781992524476388e-05,Stood
0.34658654000000055,5.830922879563758e-06,4.484194758835735e-06,8.250654555462665e-06,5.252999319188832e-06,6.799241680740005e-06,2.177753029491736e-05,Stood
0.34710576999999887,5.8440846607554165e-06,4.483021103622782e-06,8.411308882974306e-06,5.248666975836646e-06,6.812723881090181e-06,2.1777934321381488e-05,Stood
0.34762500000000074,5.8426362225587225e-06,4.484097699685879e-06,8.571642215618053e-06,5.242638745101805e-06,6.826983427470473e-06,2.176598011967522e-05,Stood
0.34814422999999906,5.8536441906865945e-06,4.477340273197312e-06,8.686184768962084e-06,5.237865968268372e-06,6.837330818990558e-06,2.173737115131701e-05,Stood
0.3486634600000009,5.893203139391385e-06,4.4847136589032e-06,8.746090148742999e-06,5.236473219857049e-06,6.845121479565904e-06,2.1732178178850768e-05,Stood
0.34918268999999924,5.907568389666538e-06,4.542809276222255e-06,8.773729786387355e-06,5.236486229504724e-06,6.853333330312941e-06,2.177282347419356e-05,Stood
0.3497019200000011,5.907175565804083e-06,4.619840292873687e-06,8.795899813653819e-06,5.235886889609154e-06,6.860252950868542e-06,2.180462038776311e-05,Stood
0.3502211499999994,5.905730154353048e-06,4.673916916256352e-06,8.828798450742595e-06,5.235611712006931e-06,6.860300952059497e-06,2.180217278817261e-05,Stood
0.3507403800000013,5.88780930234864e-06,4.702818998453428e-06,8.86749606224122e-06,5.241423024416744e-06,6.869855225747903e-06,2.1801105871095555e-05,Stood
0.35125962000000044,5.895989632101266e-06,4.714358198344453e-06,8.901635156983984e-06,5.25869615279941e-06,6.9217106665532325e-06,2.1799220371365967e-05,Stood
0.35177884999999876,5.899777379765826e-06,4.735010678220401e-06,8.935174703332413e-06,5.2840235624763885e-06,7.006514182110341e-06,2.1779502884995865e-05,Stood
0.3522980800000006,5.881757932890099e-06,4.772621260876281e-06,8.970685082737153e-06,5.308119592123409e-06,7.076516404114093e-06,2.1757731122949168e-05,Stood
0.35281730999999894,5.89237186056853e-06,4.795255835149776e-06,9.002061531577284e-06,5.322201078303642e-06,7.1224209198612e-06,2.175126190988447e-05,Stood
0.3533365400000008,5.87659324251645e-06,4.793959495429836e-06,9.02281422773288e-06,5.32384633412858e-06,7.174606547590324e-06,2.1749342308235903e-05,Stood
0.3538557699999991,5.843349051252836e-06,4.788481919491831e-06,9.030928828812632e-06,5.322523211836678e-06,7.248331840667863e-06,2.170969561267988e-05,Stood
0.354375000000001,5.862620789033146e-06,4.79841233927327e-06,9.035035624686404e-06,5.331721730416067e-06,7.337537693276536e-06,2.1608013714130523e-05,Stood
0.3548942299999993,5.868235511283512e-06,4.828874959182161e-06,9.038482603911453e-06,5.353623143494513e-06,7.408654784213978e-06,2.151903772281623e-05,Stood
0.3554134600000012,5.860501290522669e-06,4.851664195165566e-06,9.036945617646067e-06,5.374729730177272e-06,7.42856164892646e-06,2.154395683907401e-05,Stood
0.3559326899999995,5.900265633380255e-06,4.8509476774933015e-06,9.039211792911726e-06,5.382887215062475e-06,7.423558927200655e-06,2.164259980042926e-05,Stood
0.3564519199999978,5.923214293428843e-06,4.849845498361615e-06,9.047403189642953e-06,5.381659820961709e-06,7.432285666727387e-06,2.170688847581168e-05,Stood
0.3569711499999997,5.914677243786584e-06,4.8618305248911845e-06,9.049495801518872e-06,5.379728377290871e-06,7.445922786659276e-06,2.1694825252209287e-05,Stood
0.357490379999998,5.922231398420018e-06,4.877450005767723e-06,9.04908848162085e-06,5.379663650542685e-06,7.4489995030385796e-06,2.1587522933212983e-05,Stood
0.3580096200000007,5.918050838516467e-06,4.888441607068973e-06,9.054615307788194e-06,5.380124041128745e-06,7.4466781047484014e-06,2.1382664367121057e-05,Stood
0.358528849999999,5.905726976994507e-06,4.896628806074875e-06,9.061821852896774e-06,5.380054798719788e-06,7.445899913752215e-06,2.112763633069931e-05,Stood
0.3590480800000009,5.90960038314647e-06,4.906181181929525e-06,9.06633996198628e-06,5.380797075747373e-06,7.44636960775593e-06,2.089224981075937e-05,Stood
0.3595673099999992,5.915311083773773e-06,4.917782681218535e-06,9.06692283494978e-06,5.38426534833614e-06,7.445516356337747e-06,2.0733860711286765e-05,Stood
0.36008654000000107,5.941238879959464e-06,4.929505458372942e-06,9.065926556546512e-06,5.38836596318375e-06,7.4414155970049e-06,2.066653054254383e-05,Stood
0.3606057699999994,5.980114822279586e-06,4.936902245510703e-06,9.070401908831382e-06,5.38952668060144e-06,7.432093444886986e-06,2.0657766532034135e-05,Stood
0.36112500000000125,5.992084006806808e-06,4.934093714725075e-06,9.08895851501919e-06,5.389722079058406e-06,7.416868758533002e-06,2.066290502569192e-05,Stood
0.36164422999999957,5.99264102696003e-06,4.9192255382950414e-06,9.139463914482996e-06,5.391265165023954e-06,7.402842757518868e-06,2.0661258370433915e-05,Stood
0.3621634599999979,5.989875706309937e-06,4.8999459212625865e-06,9.236903399874774e-06,5.388622108394792e-06,7.408099550241367e-06,2.067764089037973e-05,Stood
0.36268268999999975,5.986773940646456e-06,4.887583557873659e-06,9.36429966189589e-06,5.380021880487372e-06,7.466419682051864e-06,2.0738679222293224e-05,Stood
0.36320191999999807,5.999343886721422e-06,4.884967238578326e-06,9.488513246431035e-06,5.374917415724432e-06,7.591775786395842e-06,2.0801665971619224e-05,Stood
0.36372114999999994,5.986816303791752e-06,4.8851347055138695e-06,9.601559927897635e-06,5.375604662332004e-06,7.713019764412904e-06,2.079677966618117e-05,Stood
0.36424037999999825,5.951328699005534e-06,4.883980784139468e-06,9.719765124979448e-06,5.372540383801308e-06,7.7534370777583e-06,2.0689722044000085e-05,Stood
0.36475962000000095,5.947177022831595e-06,4.885163802983991e-06,9.867160090438665e-06,5.363217384250985e-06,7.751075721482648e-06,2.052913482807505e-05,Stood
0.36527884999999927,5.947231083968957e-06,4.8882847726928015e-06,1.0062876317332202e-05,5.356079295773984e-06,7.772310443875091e-06,2.0453367689091172e-05,Stood
0.36579808000000114,5.941736805298509e-06,4.889013763474832e-06,1.0287107064515922e-05,5.359189870329326e-06,7.800997143113217e-06,2.047644448449041e-05,Stood
0.36631730999999945,5.952236920058987e-06,4.888350793377926e-06,1.0483178308108903e-05,5.368436796711854e-06,7.802957739317807e-06,2.04885101178468e-05,Stood
0.3668365400000013,5.94484169591377e-06,4.888271089140823e-06,1.061105421024062e-05,5.372104773473902e-06,7.788267153808042e-06,2.050255461167104e-05,Stood
0.36735576999999964,5.9428201019908135e-06,4.890621797839435e-06,1.067931231806551e-05,5.371130916634618e-06,7.782738872322654e-06,2.0578642221562943e-05,Stood
0.36787499999999795,5.976764931384184e-06,4.897202098863404e-06,1.0725172899677338e-05,5.374623468861612e-06,7.797830817980443e-06,2.0693422457913212e-05,Stood
0.3683942299999998,5.9858696305471645e-06,4.90347509176021e-06,1.077675613829556e-05,5.386191427164998e-06,7.824917531911194e-06,2.0789340845292105e-05,Stood
0.36891345999999814,5.972908131304977e-06,4.905454768929734e-06,1.0842335188159694e-05,5.401504171037727e-06,7.847616846301392e-06,2.081040618308654e-05,Stood
0.36943269,5.988479441806494e-06,4.905130974285526e-06,1.090979702505141e-05,5.409052620679357e-06,7.860486809058499e-06,2.0778068946033443e-05,Stood
0.3699519199999983,6.0023306192628414e-06,4.904790642452205e-06,1.0957580165301468e-05,5.405636893117047e-06,7.867242884268791e-06,2.0794227500527817e-05,Stood
0.3704711500000002,6.0005538448408e-06,4.902050049363666e-06,1.098349529274745e-05,5.400175012513874e-06,7.869974205508822e-06,2.0871790630916785e-05,Stood
0.3709903799999985,6.013842170865401e-06,4.889386329007778e-06,1.1001568139012156e-05,5.399745675707104e-06,7.86948720689101e-06,2.0911407907817977e-05,Stood
0.3715096200000012,6.033557409818264e-06,4.867963676072588e-06,1.1021005755662006e-05,5.401741050999681e-06,7.875884443961514e-06,2.0891416559010857e-05,Stood
0.3720288499999995,6.045072047239581e-06,4.851683460814537e-06,1.1041020124814472e-05,5.399251305779327e-06,7.900883983512956e-06,2.0904993654076638e-05,Stood
0.37254807999999784,6.04960253692695e-06,4.846721549784718e-06,1.105738861693788e-05,5.393407017055965e-06,7.930771039228633e-06,2.0981335956005787e-05,Stood
0.3730673099999997,6.048449664033149e-06,4.846972991651134e-06,1.106761915406404e-05,5.38966354833242e-06,7.942524144440972e-06,2.105969910146146e-05,Stood
0.373586539999998,6.0488592490666425e-06,4.847590256399566e-06,1.106888970025457e-05,5.388495762555954e-06,7.937323757309358e-06,2.110579713303969e-05,Stood
0.3741057699999999,6.046319239672469e-06,4.848019558561025e-06,1.1064230528410164e-05,5.388127129598653e-06,7.93006528865684e-06,2.1100859692127112e-05,Stood
0.3746249999999982,6.034528342531759e-06,4.848279245077581e-06,1.1066396099351353e-05,5.38791344008636e-06,7.954017146914834e-06,2.1057481437943136e-05,Stood
0.3751442300000001,6.030215165831157e-06,4.848173262568346e-06,1.1078047994137002e-05,5.388126974957551e-06,8.04967221106041e-06,2.104171469175929e-05,Stood
0.3756634599999984,6.0370225542790095e-06,4.849657008536809e-06,1.1087047285304975e-05,5.388186433059806e-06,8.182370844192596e-06,2.10635904387007e-05,Stood
0.37618269000000026,6.036635316368956e-06,4.854324000916431e-06,1.1089890951687554e-05,5.389096173937144e-06,8.267963859226454e-06,2.107148593446981e-05,Stood
0.3767019199999986,6.038765786634107e-06,4.859049135642849e-06,1.109094212512563e-05,5.394635471005649e-06,8.291286980078026e-06,2.1079093138964663e-05,Stood
0.37722115000000045,6.051196628242458e-06,4.861458307717596e-06,1.1094898900195036e-05,5.40081336118917e-06,8.293151645278727e-06,2.116533808034237e-05,Stood
0.37774037999999877,6.052943869158709e-06,4.860795098457617e-06,1.1105476592975948e-05,5.40088670923798e-06,8.282257176618839e-06,2.1361313127626063e-05,Stood
0.3782596199999979,6.055128643088029e-06,4.856431299432638e-06,1.111863036125504e-05,5.401105431716393e-06,8.258294310901287e-06,2.1624930921603345e-05,Stood
0.3787788499999998,6.059925739242527e-06,4.854018210583851e-06,1.1131458112518476e-05,5.404152106139459e-06,8.245673937963548e-06,2.1881163981447578e-05,Stood
0.3792980799999981,6.057768660804044e-06,4.859185300341108e-06,1.114522686596571e-05,5.4044842335604855e-06,8.252360866704808e-06,2.204262543951756e-05,Stood
0.37981730999999996,6.075530832874316e-06,4.867021852759231e-06,1.1164495738362084e-05,5.406072371504232e-06,8.287683903012381e-06,2.208463764992893e-05,Stood
0.3803365399999983,6.094875550485466e-06,4.870136464239983e-06,1.1194050219527487e-05,5.409171302833559e-06,8.36111560669768e-06,2.208675992305e-05,Stood
0.38085577000000015,6.094321722226329e-06,4.870137363516411e-06,1.1226411957901356e-05,5.4093936402488736e-06,8.436112882880738e-06,2.208986930812461e-05,Stood
0.38137499999999847,6.095669230801318e-06,4.871282148849388e-06,1.1253993904277538e-05,5.41004354147884e-06,8.4825295715293e-06,2.205903920257341e-05,Stood
0.38189423000000033,6.084953552880763e-06,4.872522090878268e-06,1.1278732297574042e-05,5.410941540785487e-06,8.514706270833147e-06,2.2019750078919092e-05,Stood
0.38241345999999865,6.078759850990575e-06,4.871389386327981e-06,1.1301922249444596e-05,5.409785644293931e-06,8.552014498161361e-06,2.201310086889521e-05,Stood
0.3829326900000005,6.110045431765144e-06,4.8703084953339535e-06,1.1326474135961585e-05,5.407265116445947e-06,8.591833772750316e-06,2.2022273265142336e-05,Stood
0.38345191999999884,6.133060338429176e-06,4.877850850591483e-06,1.1356782468001762e-05,5.405996954314664e-06,8.611385734093107e-06,2.2028080432008804e-05,Stood
0.3839711500000007,6.135291593546992e-06,4.898483647369409e-06,1.1387478084368572e-05,5.409807362033994e-06,8.601016700386714e-06,2.2013255554705057e-05,Stood
0.384490379999999,6.131978941432177e-06,4.922422916510902e-06,1.1410522612024622e-05,5.414083186890941e-06,8.584600558044412e-06,2.1989137976374225e-05,Stood
0.38500961999999816,6.1067787339116255e-06,4.93264966084065e-06,1.1428410588078912e-05,5.410265077666833e-06,8.581850008230978e-06,2.1996786184921263e-05,Stood
0.38552885000000003,6.090117147130483e-06,4.924867936728312e-06,1.1450104779455065e-05,5.399722494017615e-06,8.58702847092167e-06,2.1988629037508368e-05,Stood
0.38604807999999835,6.095076863030194e-06,4.912085183936599e-06,1.1483160655783065e-05,5.39418840228283e-06,8.591402697561344e-06,2.188772809789651e-05,Stood
